Name
Date of Birth,"Jul 30, 1978"
Recorded Date,2024-11-14 09:08:31 -0600
Classification,Sinus Rhythm
Symptoms,
Software Version,1.90
Device,"Watch6,7"
Sample Rate,512 hertz


Lead,Lead I
Unit,µV

-168.594
-156.221
-144.885
-133.542
-121.644
-109.118
-96.135
-82.997
-70.278
-58.683
-48.836
-40.958
-35.04
-30.988
-28.526
-27.412
-27.342
-27.865
-28.617
-29.36
-29.957
-30.346
-30.483
-30.247
-29.501
-28.168
-26.199
-23.601
-20.411
-16.653
-12.395
-7.747
-2.866
2.06
6.892
11.556
16.009
20.228
24.187
27.84
31.15
34.114
36.724
38.982
40.889
42.443
43.663
44.598
45.314
45.888
46.377
46.813
47.219
47.611
48.007
48.42
48.855
49.307
49.775
50.267
50.791
51.36
51.978
52.643
53.348
54.084
54.848
55.633
56.438
57.255
58.083
58.918
59.76
60.611
61.469
62.328
63.183
64.028
64.856
65.663
66.442
67.187
67.894
68.562
69.185
69.761
70.284
70.751
71.158
71.502
71.778
71.976
72.086
72.097
72
71.791
71.464
71.014
70.437
69.733
68.91
67.982
66.96
65.848
64.647
63.362
62.007
60.614
59.218
57.844
56.514
55.237
54.019
52.863
51.759
50.663
49.51
48.226
46.768
45.136
43.346
41.407
39.308
36.985
34.378
31.449
28.103
24.289
20.047
15.443
10.603
5.776
1.241
-2.764
-5.805
-7.699
-9.031
-10.374
-12.067
-14.657
-16.965
-17.79
-18.58
-18.885
-20.106
-23.872
-25.512
-23.936
-15.917
3.969
33.719
73.848
119.595
159.214
183.978
183.343
153.19
96.717
17.64
-74.443
-168.733
-251.647
-304.851
-319.281
-295.446
-245.268
-191.176
-147.906
-120.907
-107.63
-98.451
-88.854
-79.427
-71.764
-68.514
-69.395
-71.709
-73.79
-74.578
-73.632
-71.299
-67.817
-63.462
-58.907
-54.915
-51.859
-49.797
-48.597
-47.958
-47.676
-47.625
-47.627
-47.521
-47.219
-46.7
-45.982
-45.107
-44.1
-42.96
-41.675
-40.231
-38.627
-36.875
-35.013
-33.098
-31.18
-29.309
-27.515
-25.804
-24.18
-22.637
-21.16
-19.737
-18.348
-16.976
-15.615
-14.268
-12.938
-11.627
-10.328
-9.029
-7.72
-6.394
-5.042
-3.66
-2.245
-0.794
0.692
2.206
3.745
5.302
6.874
8.461
10.062
11.676
13.305
14.945
16.598
18.263
19.937
21.619
23.304
24.987
26.666
28.336
29.992
31.633
33.255
34.855
36.432
37.983
39.508
41.005
42.472
43.907
45.31
46.677
48.006
49.296
50.544
51.747
52.903
54.009
55.061
56.054
56.986
57.849
58.641
59.354
59.984
60.525
60.97
61.316
61.558
61.689
61.707
61.605
61.381
61.03
60.548
59.932
59.178
58.284
57.248
56.066
54.739
53.267
51.648
49.885
47.978
45.932
43.749
41.435
38.994
36.434
33.762
30.987
28.118
25.166
22.142
19.057
15.924
12.756
9.567
6.369
3.179
0.009
-3.126
-6.212
-9.234
-12.179
-15.033
-17.783
-20.417
-22.923
-25.291
-27.509
-29.569
-31.462
-33.181
-34.719
-36.073
-37.237
-38.21
-38.99
-39.578
-39.976
-40.187
-40.214
-40.063
-39.742
-39.257
-38.617
-37.833
-36.914
-35.874
-34.724
-33.478
-32.15
-30.755
-29.306
-27.82
-26.31
-24.791
-23.278
-21.785
-20.325
-18.912
-17.558
-16.275
-15.075
-13.969
-12.965
-12.072
-11.296
-10.645
-10.121
-9.728
-9.468
-9.34
-9.345
-9.48
-9.743
-10.13
-10.636
-11.255
-11.98
-12.801
-13.708
-14.692
-15.739
-16.837
-17.972
-19.13
-20.298
-21.461
-22.605
-23.717
-24.782
-25.786
-26.715
-27.557
-28.297
-28.923
-29.423
-29.787
-30.006
-30.072
-29.982
-29.732
-29.319
-28.742
-28.002
-27.098
-26.031
-24.802
-23.411
-21.861
-20.154
-18.296
-16.297
-14.166
-11.918
-9.568
-7.13
-4.624
-2.066
0.525
3.133
5.744
8.341
10.908
13.423
15.857
18.185
20.391
22.461
24.384
26.159
27.782
29.261
30.62
31.882
33.07
34.203
35.279
36.287
37.225
38.092
38.896
39.634
40.276
40.783
41.126
41.271
41.188
40.826
40.083
38.857
37.05
34.574
31.397
27.508
22.889
17.534
11.451
4.696
-2.607
-10.307
-18.283
-26.431
-34.678
-42.896
-50.843
-58.261
-64.854
-70.334
-74.527
-77.228
-78.141
-77.127
-74.215
-69.653
-64.088
-58.154
-52.2
-46.615
-41.694
-37.319
-33.163
-28.362
-21.342
-10.815
4.065
23.939
48.636
77.105
107.319
135.84
158.63
171.867
173.164
162.163
137.557
98.144
42.674
-31.388
-118.128
-205.279
-280.187
-327.602
-344.122
-338.313
-318.272
-294.884
-272.979
-248.971
-222.859
-195.582
-168.717
-146.756
-131.391
-121.599
-116.409
-114.014
-112.406
-110.583
-107.913
-103.903
-98.694
-92.774
-86.509
-80.425
-75.17
-71.001
-67.991
-66.128
-65.175
-64.904
-65.163
-65.726
-66.358
-66.927
-67.356
-67.623
-67.774
-67.813
-67.725
-67.511
-67.179
-66.762
-66.305
-65.837
-65.383
-64.966
-64.618
-64.377
-64.283
-64.352
-64.581
-64.96
-65.471
-66.101
-66.838
-67.661
-68.541
-69.451
-70.364
-71.256
-72.108
-72.894
-73.588
-74.161
-74.589
-74.852
-74.936
-74.826
-74.512
-73.983
-73.232
-72.256
-71.053
-69.623
-67.962
-66.071
-63.95
-61.602
-59.032
-56.246
-53.252
-50.06
-46.68
-43.127
-39.416
-35.563
-31.582
-27.493
-23.314
-19.065
-14.765
-10.436
-6.098
-1.774
2.515
6.746
10.898
14.948
18.878
22.666
26.293
29.742
32.995
36.038
38.856
41.436
43.768
45.84
47.646
49.178
50.431
51.402
52.089
52.491
52.61
52.448
52.011
51.303
50.333
49.108
47.638
45.934
44.008
41.872
39.542
37.031
34.355
31.531
28.577
25.509
22.345
19.102
15.8
12.453
9.079
5.694
2.311
-1.054
-4.39
-7.682
-10.919
-14.09
-17.184
-20.193
-23.107
-25.918
-28.621
-31.208
-33.676
-36.019
-38.235
-40.32
-42.272
-44.09
-45.772
-47.319
-48.732
-50.012
-51.163
-52.189
-53.095
-53.887
-54.571
-55.154
-55.646
-56.054
-56.385
-56.643
-56.834
-56.964
-57.036
-57.057
-57.028
-56.955
-56.844
-56.704
-56.544
-56.375
-56.203
-56.034
-55.874
-55.728
-55.604
-55.504
-55.427
-55.377
-55.356
-55.377
-55.458
-55.607
-55.82
-56.085
-56.385
-56.701
-57.023
-57.333
-57.6
-57.809
-57.956
-58.053
-58.141
-58.241
-58.36
-58.49
-58.603
-58.692
-58.777
-58.875
-59.014
-59.221
-59.513
-59.935
-60.561
-61.422
-62.514
-63.792
-65.149
-66.519
-67.865
-69.165
-70.418
-71.606
-72.68
-73.605
-74.355
-74.892
-75.18
-75.146
-74.671
-73.701
-72.236
-70.329
-68.107
-65.655
-63.02
-60.25
-57.38
-54.451
-51.524
-48.634
-45.791
-43.032
-40.4
-37.972
-35.87
-34.156
-32.844
-31.911
-31.28
-30.896
-30.741
-30.777
-30.971
-31.297
-31.726
-32.256
-32.915
-33.701
-34.604
-35.595
-36.616
-37.643
-38.672
-39.707
-40.769
-41.87
-43.003
-44.176
-45.402
-46.68
-48.006
-49.354
-50.664
-51.896
-53.016
-54
-54.841
-55.506
-55.975
-56.241
-56.31
-56.249
-56.135
-56.002
-55.884
-55.783
-55.646
-55.563
-55.658
-55.842
-56.085
-56.311
-56.345
-56.352
-56.536
-56.675
-56.555
-56.256
-55.646
-54.988
-54.79
-54.736
-54.616
-54.691
-54.925
-55.025
-54.906
-53.636
-49.877
-43.395
-33.805
-20.608
-3.96
15.707
37.918
61.03
82.516
100.717
113.916
120.527
119.623
110.313
91.637
63.799
28.6
-12.343
-57.262
-104.234
-151.656
-197.013
-236.68
-267.662
-288.595
-298.54
-297.122
-284.321
-259.908
-225.533
-185.016
-142.319
-100.739
-62.848
-30.198
-4.323
12.772
20.88
21.748
17.676
11.314
4.461
-2.284
-8.027
-11.365
-11.803
-9.675
-5.86
-1.903
1.359
3.97
5.807
6.608
6.283
4.794
2.467
0.074
-1.911
-3.327
-4.061
-4.149
-3.591
-2.309
-0.371
2.027
4.701
7.451
10.155
12.803
15.383
17.881
20.289
22.57
24.706
26.695
28.538
30.235
31.78
33.156
34.366
35.438
36.42
37.384
38.382
39.441
40.579
41.809
43.142
44.595
46.172
47.864
49.663
51.569
53.585
55.721
57.979
60.356
62.842
65.425
68.095
70.844
73.661
76.536
79.459
82.417
85.406
88.421
91.455
94.501
97.549
100.587
103.604
106.59
109.531
112.413
115.223
117.948
120.576
123.097
125.499
127.772
129.905
131.889
133.714
135.37
136.849
138.141
139.238
140.132
140.816
141.286
141.536
141.564
141.368
140.948
140.305
139.439
138.353
137.05
135.532
133.803
131.87
129.739
127.415
124.909
122.228
119.384
116.388
113.25
109.982
106.595
103.103
99.516
95.847
92.11
88.318
84.483
80.621
76.746
72.872
69.014
65.185
61.398
57.667
54.002
50.416
46.918
43.519
40.227
37.052
34
31.079
28.296
25.655
23.16
20.815
18.622
16.582
14.694
12.96
11.376
9.943
8.658
7.517
6.518
5.657
4.928
4.327
3.845
3.478
3.215
3.05
2.975
2.98
3.057
3.198
3.394
3.638
3.922
4.237
4.577
4.934
5.302
5.674
6.046
6.413
6.771
7.119
7.453
7.772
8.076
8.364
8.635
8.891
9.13
9.355
9.566
9.764
9.953
10.135
10.314
10.492
10.675
10.867
11.071
11.292
11.533
11.8
12.096
12.426
12.795
13.206
13.664
14.174
14.738
15.359
16.038
16.777
17.573
18.427
19.336
20.296
21.306
22.361
23.458
24.595
25.766
26.968
28.195
29.443
30.706
31.977
33.25
34.518
35.775
37.016
38.236
39.429
40.59
41.714
42.796
43.831
44.811
45.728
46.574
47.349
48.051
48.678
49.229
49.695
50.08
50.399
50.652
50.818
50.886
50.838
50.678
50.446
50.15
49.756
49.292
48.847
48.484
48.282
48.256
48.308
48.42
48.713
49.074
49.101
48.725
48.062
47.061
46.172
44.557
39.721
32.301
24.582
20.44
27.039
43.74
63.397
78.806
79.741
65.776
46.439
29.076
21.73
25.581
33.448
40.993
45.158
45.113
43.797
42.478
41.067
39.656
37.804
35.516
33.323
31.488
30.091
29.209
28.855
29.107
30.048
31.536
33.424
35.507
37.525
39.532
41.631
43.651
45.406
46.912
48.142
49.349
51.012
53.009
55.097
57.137
58.833
59.655
58.839
55.217
47.376
34.492
16.233
-7.133
-34.74
-65.142
-96.139
-125.311
-150.08
-168.117
-177.891
-178.94
-171.716
-157.627
-139.037
-118.184
-97.231
-78.307
-63.01
-52.406
-46.508
-44.258
-44.345
-45.221
-46.689
-50.713
-56.516
-61.406
-61.628
-48.728
-21.07
12.386
40.927
48.727
27.085
-12.482
-53.376
-78.124
-73.256
-46.209
-12.972
14.449
25.614
22.334
14.436
6.888
3.358
4.312
6.154
7.772
9.347
10.641
12.163
14.032
15.761
17.205
18.413
19.317
19.901
20.246
20.398
20.404
20.351
20.266
20.13
19.966
19.801
19.654
19.543
19.484
19.482
19.55
19.705
19.954
20.305
20.76
21.325
22.008
22.815
23.753
24.827
26.04
27.394
28.89
30.527
32.302
34.208
36.24
38.389
40.646
43
45.442
47.959
50.538
53.166
55.83
58.516
61.21
63.896
66.559
69.183
71.753
74.253
76.667
78.98
81.176
83.24
85.157
86.914
88.498
89.895
91.096
92.088
92.863
93.412
93.728
93.805
93.638
93.226
92.565
91.657
90.502
89.103
87.465
85.593
83.495
81.177
78.649
75.92
73.002
69.905
66.642
63.226
59.671
55.99
52.2
48.314
44.349
40.321
36.244
32.136
28.01
23.883
19.769
15.682
11.637
7.646
3.723
-0.122
-3.876
-7.529
-11.072
-14.495
-17.792
-20.957
-23.982
-26.865
-29.602
-32.19
-34.629
-36.917
-39.055
-41.044
-42.886
-44.583
-46.14
-47.56
-48.848
-50.01
-51.052
-51.98
-52.8
-53.52
-54.147
-54.687
-55.148
-55.537
-55.861
-56.127
-56.342
-56.514
-56.649
-56.754
-56.835
-56.899
-56.952
-56.999
-57.046
-57.097
-57.157
-57.228
-57.316
-57.422
-57.548
-57.697
-57.869
-58.065
-58.284
-58.527
-58.791
-59.075
-59.377
-59.695
-60.025
-60.365
-60.712
-61.061
-61.409
-61.754
-62.09
-62.414
-62.721
-63.008
-63.269
-63.499
-63.695
-63.85
-63.959
-64.016
-64.017
-63.955
-63.825
-63.623
-63.343
-62.981
-62.536
-62.003
-61.383
-60.673
-59.875
-58.99
-58.019
-56.965
-55.832
-54.623
-53.343
-51.999
-50.595
-49.14
-47.639
-46.102
-44.536
-42.95
-41.354
-39.756
-38.167
-36.595
-35.053
-33.551
-32.101
-30.718
-29.414
-28.201
-27.092
-26.1
-25.234
-24.507
-23.924
-23.493
-23.217
-23.103
-23.153
-23.371
-23.755
-24.305
-25.02
-25.903
-26.952
-28.169
-29.55
-31.092
-32.791
-34.644
-36.638
-38.762
-40.999
-43.327
-45.726
-48.178
-50.659
-53.15
-55.622
-58.036
-60.358
-62.552
-64.578
-66.403
-67.998
-69.345
-70.448
-71.331
-72.016
-72.545
-72.958
-73.292
-73.59
-73.87
-74.144
-74.447
-74.814
-75.302
-75.958
-76.787
-77.747
-78.765
-79.718
-80.487
-80.904
-80.696
-79.724
-77.968
-75.546
-72.868
-70.256
-67.823
-65.791
-64.291
-62.957
-61.163
-57.846
-51.379
-40.669
-25.144
-4.253
21.725
51.406
82.624
112.093
135.815
150.62
153.993
143.729
119.139
81.082
31.949
-24.054
-81.895
-137.014
-185.426
-223.617
-249.409
-261.957
-262.007
-251.987
-235.113
-214.696
-193.46
-173.62
-156.768
-143.72
-134.487
-128.3
-123.846
-119.582
-114.536
-108.178
-100.233
-90.85
-80.304
-68.973
-57.543
-46.809
-37.298
-29.362
-23.146
-18.536
-15.445
-13.772
-13.295
-13.774
-14.94
-16.489
-18.225
-20.023
-21.77
-23.408
-24.846
-25.965
-26.675
-26.885
-26.534
-25.615
-24.117
-22.035
-19.417
-16.329
-12.889
-9.269
-5.585
-1.914
1.688
5.2
8.593
11.822
14.865
17.71
20.345
22.771
24.982
26.965
28.735
30.322
31.778
33.175
34.565
35.98
37.447
38.979
40.589
42.29
44.082
45.955
47.907
49.938
52.052
54.258
56.555
58.938
61.398
63.922
66.499
69.118
71.768
74.438
77.119
79.8
82.474
85.136
87.778
90.387
92.95
95.454
97.881
100.216
102.444
104.547
106.509
108.316
109.955
111.413
112.679
113.741
114.589
115.216
115.614
115.776
115.698
115.374
114.805
113.988
112.925
111.618
110.07
108.286
106.272
104.035
101.585
98.931
96.084
93.056
89.86
86.512
83.03
79.427
75.719
71.924
68.057
64.139
60.193
56.23
52.263
48.321
44.431
40.618
36.911
33.314
29.816
26.449
23.245
20.169
17.197
14.31
11.472
8.726
6.143
3.69
1.301
-0.843
-2.528
-3.882
-4.897
-5.534
-6.261
-5.841
-3.074
0.307
3.77
4.136
-2.401
-11.65
-20.822
-25.76
-20.749
-10.865
-0.415
7.647
8.447
5.448
2.164
-0.634
-0.81
0.38
1.323
2.316
3.144
3.909
4.925
5.975
6.881
7.694
8.422
9.04
9.552
9.967
10.291
10.557
10.8
11.009
11.171
11.295
11.383
11.439
11.471
11.479
11.464
11.434
11.397
11.358
11.326
11.305
11.302
11.323
11.372
11.456
11.578
11.743
11.955
12.218
12.535
12.909
13.344
13.842
14.404
15.032
15.726
16.486
17.31
18.197
19.144
20.147
21.204
22.309
23.458
24.645
25.865
27.112
28.38
29.66
30.946
32.231
33.505
34.76
35.99
37.185
38.338
39.442
40.49
41.476
42.394
43.238
44.003
44.683
45.272
45.766
46.158
46.443
46.619
46.681
46.628
46.458
46.173
45.773
45.265
44.651
43.936
43.125
42.225
41.24
40.175
39.037
37.83
36.561
35.237
33.863
32.445
30.989
29.5
27.987
26.459
24.925
23.394
21.876
20.382
18.928
17.531
16.209
14.985
13.879
12.909
12.097
11.462
11.016
10.767
10.699
10.779
10.975
11.249
11.567
11.894
12.188
12.412
12.544
12.568
12.473
12.253
11.877
11.311
10.553
9.636
8.657
7.776
7.161
6.96
7.323
8.456
10.44
13.219
16.603
20.175
23.531
26.459
28.825
30.515
31.862
33.475
36.049
40.738
48.522
59.905
75.148
93.907
114.695
135.461
153.972
167.306
172.782
168.12
151.39
122.155
81.801
32.788
-21.768
-77.934
-131.649
-178.602
-214.728
-237.705
-246.975
-243.318
-228.488
-204.909
-175.561
-144.169
-114.32
-88.397
-67.735
-52.657
-42.792
-37.515
-35.693
-35.631
-35.854
-35.478
-34.063
-31.662
-28.551
-24.935
-21.203
-17.907
-15.371
-13.674
-12.734
-12.276
-12.032
-11.848
-11.568
-11.035
-10.183
-8.992
-7.485
-5.741
-3.816
-1.739
0.461
2.757
5.114
7.475
9.781
11.976
14
15.814
17.4
18.748
19.867
20.774
21.486
22.027
22.424
22.695
22.849
22.897
22.848
22.716
22.523
22.289
22.037
21.788
21.56
21.367
21.223
21.14
21.127
21.191
21.337
21.574
21.911
22.357
22.921
23.61
24.428
25.379
26.465
27.684
29.033
30.507
32.098
33.798
35.599
37.491
39.464
41.508
43.611
45.763
47.95
50.161
52.381
54.597
56.794
58.957
61.069
63.116
65.082
66.949
68.704
70.33
71.811
73.134
74.284
75.247
76.011
76.566
76.901
77.008
76.881
76.515
75.907
75.057
73.965
72.633
71.064
69.262
67.232
64.982
62.517
59.846
56.978
53.921
50.687
47.286
43.729
40.031
36.202
32.256
28.208
24.072
19.862
15.594
11.283
6.944
2.592
-1.758
-6.09
-10.393
-14.652
-18.856
-22.994
-27.055
-31.031
-34.913
-38.695
-42.37
-45.932
-49.378
-52.703
-55.904
-58.978
-61.922
-64.734
-67.414
-69.959
-72.369
-74.642
-76.78
-78.782
-80.649
-82.381
-83.981
-85.45
-86.791
-88.006
-89.099
-90.073
-90.932
-91.68
-92.319
-92.855
-93.29
-93.627
-93.87
-94.022
-94.084
-94.059
-93.95
-93.76
-93.489
-93.142
-92.72
-92.227
-91.667
-91.042
-90.357
-89.616
-88.825
-87.988
-87.111
-86.199
-85.259
-84.296
-83.317
-82.329
-81.337
-80.348
-79.368
-78.403
-77.458
-76.538
-75.649
-74.797
-73.987
-73.224
-72.514
-71.863
-71.275
-70.757
-70.312
-69.946
-69.663
-69.464
-69.352
-69.33
-69.396
-69.552
-69.795
-70.126
-70.54
-71.036
-71.61
-72.257
-72.972
-73.748
-74.578
-75.456
-76.374
-77.323
-78.296
-79.287
-80.289
-81.294
-82.297
-83.289
-84.264
-85.213
-86.13
-87.006
-87.833
-88.601
-89.305
-89.938
-90.493
-90.967
-91.356
-91.657
-91.869
-91.993
-92.029
-91.975
-91.835
-91.608
-91.299
-90.909
-90.442
-89.896
-89.277
-88.591
-87.843
-87.043
-86.198
-85.313
-84.396
-83.458
-82.505
-81.546
-80.583
-79.618
-78.655
-77.706
-76.788
-75.925
-75.135
-74.428
-73.814
-73.294
-72.859
-72.493
-72.162
-71.816
-71.425
-70.967
-70.433
-69.845
-69.212
-68.533
-67.811
-67.028
-66.167
-65.229
-64.217
-63.145
-62.066
-61.06
-60.248
-59.789
-59.82
-60.423
-61.619
-63.355
-65.563
-68.185
-71.202
-74.629
-78.442
-82.645
-87.254
-92.181
-97.295
-102.414
-107.085
-110.731
-112.995
-113.41
-111.588
-108.013
-103.417
-98.09
-92.882
-87.524
-79.48
-69.056
-57.737
-47.072
-43.875
-49.323
-56.236
-57.84
-39.994
6.806
73.57
148.823
213.036
242.313
232.63
183.309
97.333
-6.725
-116.996
-217.657
-285.008
-312.149
-299.236
-256.401
-208.697
-170.926
-148.104
-138.767
-131.715
-121.344
-108.496
-95.047
-84.871
-78.884
-75.047
-71.594
-67.283
-61.562
-54.507
-46.33
-37.256
-27.76
-18.532
-10.181
-2.958
3.098
8.058
12.087
15.305
17.865
20.013
21.987
23.925
25.884
27.873
29.887
31.946
34.078
36.298
38.601
40.975
43.404
45.866
48.336
50.777
53.141
55.374
57.424
59.256
60.858
62.226
63.361
64.27
64.96
65.444
65.744
65.878
65.86
65.706
65.431
65.055
64.601
64.091
63.551
63.002
62.465
61.957
61.494
61.09
60.758
60.51
60.354
60.298
60.355
60.534
60.845
61.297
61.897
62.651
63.564
64.639
65.874
67.268
68.817
70.514
72.353
74.326
76.423
78.634
80.949
83.355
85.84
88.39
90.991
93.627
96.284
98.945
101.593
104.212
106.785
109.294
111.723
114.054
116.271
118.358
120.298
122.077
123.68
125.094
126.305
127.303
128.079
128.624
128.931
128.997
128.818
128.392
127.721
126.805
125.648
124.255
122.631
120.784
118.721
116.451
113.985
111.334
108.508
105.522
102.388
99.12
95.732
92.241
88.66
85.007
81.297
77.547
73.772
69.989
66.214
62.461
58.747
55.083
51.485
47.965
44.535
41.205
37.985
34.885
31.911
29.07
26.368
23.809
21.398
19.136
17.027
15.072
13.272
11.627
10.136
8.798
7.612
6.575
5.684
4.935
4.324
3.846
3.497
3.271
3.161
3.163
3.269
3.473
3.769
4.151
4.61
5.142
5.74
6.397
7.108
7.868
8.671
9.512
10.388
11.292
12.221
13.17
14.135
15.112
16.096
17.083
18.069
19.049
20.02
20.977
21.917
22.835
23.728
24.593
25.426
26.223
26.983
27.702
28.379
29.012
29.598
30.137
30.628
31.069
31.459
31.798
32.084
32.319
32.5
32.628
32.703
32.727
32.699
32.622
32.496
32.323
32.108
31.851
31.557
31.23
30.875
30.498
30.102
29.696
29.285
28.876
28.474
28.086
27.717
27.371
27.055
26.772
26.527
26.323
26.165
26.057
26.001
26
26.058
26.176
26.356
26.597
26.901
27.266
27.693
28.181
28.729
29.336
30
30.718
31.487
32.301
33.155
34.041
34.95
35.875
36.808
37.741
38.669
39.585
40.485
41.366
42.225
43.059
43.862
44.631
45.359
46.043
46.68
47.263
47.788
48.251
48.649
48.981
49.244
49.439
49.566
49.626
49.62
49.554
49.434
49.268
49.065
48.838
48.599
48.372
48.178
48.039
47.976
48.008
48.146
48.394
48.736
49.142
49.584
50.022
50.423
50.768
51.029
51.193
51.266
51.236
51.101
50.849
50.429
49.803
48.972
47.962
46.88
45.882
45.075
44.622
44.727
45.455
46.796
48.579
50.357
51.686
52.281
51.94
50.64
48.811
47.066
46.29
47.867
53.074
62.808
77.395
96.332
117.922
140.036
160.387
175.634
182.359
177.978
160.651
131.265
94.215
52.123
6.575
-41.426
-94.604
-149.735
-198.602
-233.021
-241.146
-217.901
-167.805
-100.004
-31.648
19.359
43.023
37.465
11.782
-17.641
-38.048
-43.778
-37.112
-26.311
-17.503
-12.46
-10.251
-8.26
-5.512
-2.911
-1.192
-0.699
-1.169
-1.921
-2.602
-3.138
-3.419
-3.31
-2.759
-1.8
-0.537
0.894
2.437
4.112
5.935
7.901
9.992
12.154
14.32
16.429
18.419
20.248
21.897
23.356
24.625
25.716
26.644
27.428
28.089
28.637
29.07
29.383
29.576
29.655
29.639
29.544
29.389
29.188
28.957
28.71
28.46
28.219
27.994
27.792
27.617
27.48
27.391
27.363
27.408
27.538
27.762
28.091
28.532
29.094
29.779
30.589
31.525
32.584
33.764
35.061
36.469
37.985
39.6
41.309
43.103
44.975
46.915
48.913
50.957
53.035
55.134
57.238
59.334
61.405
63.436
65.411
67.313
69.127
70.834
72.419
73.865
75.154
76.273
77.204
77.934
78.45
78.741
78.798
78.613
78.181
77.498
76.56
75.367
73.919
72.217
70.263
68.062
65.619
62.939
60.03
56.9
53.561
50.022
46.297
42.397
38.338
34.135
29.802
25.358
20.82
16.206
11.534
6.824
2.096
-2.632
-7.339
-12.007
-16.619
-21.155
-25.6
-29.939
-34.157
-38.24
-42.178
-45.958
-49.571
-53.008
-56.262
-59.326
-62.194
-64.861
-67.326
-69.585
-71.637
-73.482
-75.121
-76.555
-77.787
-78.822
-79.663
-80.318
-80.794
-81.098
-81.24
-81.231
-81.08
-80.799
-80.399
-79.893
-79.292
-78.608
-77.851
-77.034
-76.171
-75.273
-74.354
-73.425
-72.491
-71.561
-70.648
-69.744
-68.845
-67.959
-67.074
-66.193
-65.354
-64.567
-63.837
-63.239
-62.811
-62.542
-62.471
-62.607
-62.845
-63.134
-63.472
-63.588
-63.246
-62.695
-61.955
-60.851
-59.989
-58.526
-55.297
-51.96
-49.116
-49.577
-58.198
-73.438
-91.774
-106.242
-106.581
-89.981
-61.373
-31.948
-14.859
-17.964
-38.367
-64.379
-85.355
-93.53
-88.953
-79.427
-70.166
-64.454
-63
-62.716
-62.269
-61.716
-60.931
-60.436
-60.357
-60.238
-59.94
-59.51
-58.903
-58.117
-57.189
-56.137
-55.009
-53.887
-52.797
-51.714
-50.637
-49.575
-48.531
-47.514
-46.526
-45.561
-44.621
-43.714
-42.851
-42.035
-41.271
-40.563
-39.916
-39.338
-38.838
-38.421
-38.087
-37.838
-37.673
-37.594
-37.601
-37.694
-37.864
-38.111
-38.437
-38.852
-39.37
-39.998
-40.727
-41.545
-42.433
-43.372
-44.347
-45.332
-46.292
-47.205
-48.06
-48.86
-49.63
-50.376
-51.08
-51.709
-52.218
-52.579
-52.793
-52.869
-52.834
-52.728
-52.615
-52.58
-52.74
-53.175
-53.922
-54.978
-56.286
-57.798
-59.51
-61.43
-63.585
-66.003
-68.656
-71.479
-74.386
-77.217
-79.748
-81.748
-82.884
-82.813
-81.419
-78.73
-74.971
-70.604
-65.956
-61.201
-56.669
-52.583
-48.734
-44.697
-39.56
-31.95
-21.03
-6.302
12.784
35.987
62.169
89.625
115.49
136.212
148.892
150.768
139.252
113.466
74.004
22.545
-37.459
-101.391
-164.553
-222.028
-268.911
-303.311
-326.136
-336.684
-334.712
-318.548
-283.609
-233.593
-177.212
-125.293
-93.28
-86.158
-100.164
-125.946
-146.007
-149.974
-134.193
-102.253
-67.187
-37.844
-19.777
-13.462
-12.193
-12.04
-10.739
-7.571
-5.11
-4.339
-4.953
-6.774
-8.925
-10.921
-12.931
-14.946
-16.902
-18.796
-20.532
-21.97
-22.977
-23.436
-23.264
-22.446
-21.023
-19.054
-16.612
-13.824
-10.864
-7.877
-4.961
-2.17
0.488
2.999
5.332
7.461
9.365
11.033
12.468
13.668
14.631
15.372
15.927
16.355
16.741
17.15
17.62
18.183
18.854
19.647
20.579
21.654
22.862
24.2
25.674
27.302
29.107
31.095
33.254
35.558
37.983
40.509
43.119
45.786
48.477
51.169
53.859
56.566
59.318
62.12
64.962
67.811
70.637
73.428
76.195
78.953
81.699
84.432
87.162
89.923
92.765
95.7
98.692
101.659
104.518
107.221
109.744
112.084
114.229
116.147
117.795
119.139
120.164
120.852
121.16
121.013
120.321
119.049
117.234
114.971
112.347
109.419
106.217
102.767
99.109
95.296
91.372
87.362
83.278
79.149
75.026
71
67.164
63.568
60.206
57.03
54.002
51.105
48.336
45.69
43.145
40.681
38.297
36.013
33.852
31.82
29.907
28.079
26.302
24.566
22.882
21.274
19.76
18.349
17.046
15.861
14.81
13.901
13.13
12.477
11.925
11.463
11.088
10.801
10.6
10.48
10.43
10.442
10.507
10.619
10.767
10.941
11.129
11.322
11.515
11.706
11.895
12.078
12.251
12.411
12.556
12.683
12.791
12.875
12.931
12.959
12.955
12.922
12.857
12.762
12.636
12.481
12.298
12.087
11.85
11.588
11.302
10.995
10.668
10.323
9.963
9.59
9.207
8.819
8.428
8.038
7.652
7.274
6.907
6.554
6.219
5.905
5.615
5.351
5.118
4.919
4.757
4.634
4.553
4.517
4.526
4.583
4.688
4.843
5.05
5.308
5.621
5.988
6.411
6.891
7.428
8.022
8.672
9.377
10.135
10.941
11.794
12.688
13.621
14.587
15.582
16.601
17.64
18.692
19.751
20.812
21.867
22.911
23.936
24.937
25.905
26.837
27.726
28.568
29.357
30.088
30.755
31.353
31.873
32.31
32.655
32.903
33.048
33.086
33.014
32.832
32.541
32.143
31.641
31.036
30.332
29.531
28.633
27.639
26.549
25.367
24.1
22.754
21.334
19.845
18.291
16.681
15.022
13.32
11.582
9.812
8.017
6.215
4.426
2.677
0.997
-0.595
-2.082
-3.446
-4.67
-5.741
-6.651
-7.412
-8.05
-8.589
-9.054
-9.464
-9.836
-10.204
-10.605
-11.073
-11.641
-12.311
-13.062
-13.877
-14.771
-15.771
-16.887
-18.057
-19.124
-19.897
-20.207
-19.977
-19.051
-17.152
-14.135
-9.983
-4.964
0.255
5.094
9.33
12.658
14.743
16.002
16.927
18.339
22.324
29.094
38.195
51.322
68.238
90.723
120.265
149.196
170.806
176.841
159.78
126.876
82.836
30.71
-25.072
-91.963
-167.573
-239.131
-296.012
-321.882
-313.633
-284.228
-244.837
-208.559
-181.266
-157.596
-135.156
-112.681
-90.195
-71.264
-56.817
-45.584
-36.193
-27.122
-17.569
-7.576
2.524
12.367
21.367
28.77
33.937
36.641
36.893
34.879
30.96
25.487
18.965
11.931
4.638
-2.959
-11.011
-19.476
-27.897
-35.705
-42.652
-48.492
-52.742
-54.546
-52.862
-47.312
-38.616
-28.023
-16.429
-4.552
6.819
16.463
22.775
24.928
23.437
19.67
14.721
9.26
3.82
-0.837
-3.501
-3.425
-0.886
3.093
7.622
12.25
16.794
21.104
24.739
27.348
29.027
30.237
31.426
32.812
34.411
36.113
37.897
39.801
41.807
43.841
45.836
47.762
49.618
51.442
53.252
55.008
56.654
58.107
59.245
59.973
60.25
60.079
59.528
58.704
57.671
56.477
55.16
53.743
52.279
50.835
49.45
48.182
47.124
46.405
46.231
46.809
48.24
50.539
53.637
57.387
61.671
66.381
71.378
76.517
81.658
86.672
91.478
96.015
100.168
103.782
106.632
108.47
109.152
108.624
106.896
104.052
100.182
95.384
89.821
83.69
77.147
70.321
63.289
56.085
48.793
41.532
34.45
27.719
21.456
15.723
10.563
5.98
1.957
-1.544
-4.616
-7.392
-9.962
-12.386
-14.69
-16.869
-18.936
-20.926
-22.869
-24.801
-26.749
-28.727
-30.751
-32.838
-34.983
-37.167
-39.351
-41.471
-43.486
-45.374
-47.122
-48.731
-50.204
-51.538
-52.739
-53.824
-54.799
-55.671
-56.441
-57.103
-57.661
-58.12
-58.492
-58.79
-59.024
-59.201
-59.326
-59.405
-59.439
-59.43
-59.373
-59.263
-59.097
-58.872
-58.589
-58.247
-57.849
-57.394
-56.885
-56.324
-55.714
-55.056
-54.351
-53.599
-52.802
-51.96
-51.074
-50.144
-49.173
-48.162
-47.113
-46.032
-44.92
-43.782
-42.624
-41.449
-40.265
-39.076
-37.889
-36.71
-35.547
-34.407
-33.297
-32.227
-31.204
-30.235
-29.327
-28.488
-27.722
-27.034
-26.428
-25.907
-25.471
-25.124
-24.865
-24.695
-24.614
-24.624
-24.722
-24.909
-25.182
-25.54
-25.979
-26.495
-27.083
-27.738
-28.451
-29.216
-30.025
-30.871
-31.746
-32.642
-33.548
-34.455
-35.353
-36.234
-37.086
-37.897
-38.653
-39.346
-39.971
-40.529
-41.018
-41.437
-41.78
-42.049
-42.254
-42.387
-42.421
-42.317
-42.04
-41.583
-40.972
-40.226
-39.345
-38.383
-37.459
-36.725
-36.302
-36.205
-36.347
-36.645
-37.075
-37.413
-37.147
-35.918
-33.684
-30.653
-27.401
-23.059
-15.473
-4.333
8.734
17.336
12.315
-10.051
-46.885
-86.107
-110.757
-108.647
-76.663
-23.792
34.055
77.18
90.932
72.711
26.89
-28.363
-71.676
-91.792
-82.218
-52.052
-19.149
6.189
16.199
12.112
3.072
-6.463
-13.758
-18.074
-22.275
-27.244
-32.513
-38.118
-43.591
-48.783
-54.058
-59.461
-64.736
-69.595
-73.784
-76.937
-78.647
-78.721
-77.023
-73.654
-69.167
-64.043
-58.613
-53.34
-48.436
-43.522
-38.056
-31.031
-20.827
-6.411
12.892
37.815
67.964
101.659
136.726
169.978
197.127
214.488
218.942
207.333
179.673
139.24
87.786
27.634
-39.421
-115.249
-195.112
-269.234
-328.496
-359.735
-356.476
-322.395
-264.842
-199.947
-146.225
-114.636
-108.905
-121.986
-138.65
-146.997
-141.942
-125.53
-105.532
-87.728
-73.677
-62.338
-51.223
-39.479
-27.626
-16.599
-7.471
-0.098
4.502
5.257
4.085
1.745
1.638
7.864
16.509
24.962
29.21
23.653
13.415
2.84
-5.084
-5.45
-1.637
2.926
7.508
9.989
11.585
13.842
16.364
19.228
22.206
24.864
27.336
29.75
32.027
34.145
36.122
37.956
39.627
41.118
42.389
43.397
44.165
44.731
45.13
45.423
45.666
45.91
46.199
46.564
47.021
47.579
48.241
49.001
49.858
50.813
51.872
53.045
54.334
55.741
57.262
58.888
60.611
62.418
64.298
66.237
68.226
70.254
72.313
74.397
76.5
78.611
80.721
82.818
84.887
86.917
88.892
90.798
92.619
94.343
95.957
97.451
98.814
100.036
101.108
102.023
102.774
103.354
103.758
103.982
104.021
103.873
103.538
103.016
102.31
101.422
100.358
99.122
97.721
96.163
94.455
92.606
90.625
88.52
86.302
83.981
81.567
79.072
76.508
73.885
71.216
68.511
65.78
63.034
60.282
57.533
54.795
52.075
49.382
46.721
44.099
41.521
38.993
36.518
34.101
31.742
29.444
27.208
25.032
22.918
20.864
18.868
16.928
15.043
13.211
11.429
9.696
8.008
6.365
4.763
3.202
1.679
0.194
-1.255
-2.666
-4.041
-5.378
-6.675
-7.931
-9.145
-10.313
-11.433
-12.504
-13.521
-14.482
-15.385
-16.224
-16.998
-17.701
-18.33
-18.88
-19.348
-19.728
-20.017
-20.211
-20.307
-20.302
-20.192
-19.978
-19.657
-19.229
-18.694
-18.052
-17.307
-16.46
-15.515
-14.478
-13.353
-12.147
-10.868
-9.525
-8.124
-6.676
-5.189
-3.674
-2.139
-0.595
0.948
2.48
3.991
5.47
6.908
8.294
9.619
10.872
12.045
13.13
14.118
15.005
15.78
16.436
16.968
17.369
17.637
17.772
17.767
17.621
17.351
16.971
16.495
15.939
15.297
14.561
13.749
12.863
11.848
10.662
9.288
7.716
6
4.208
2.356
0.489
-1.135
-2.253
-2.985
-3.378
-3.437
-3.595
-2.759
-0.168
2.331
4.437
2.895
-5.833
-18.186
-33.426
-46.591
-49.644
-43.817
-26.686
-1.072
23.406
42.549
47.248
34.008
7.373
-26.205
-52.81
-63.559
-55.522
-32.074
-5.863
14.357
23.17
20.283
12.995
5.978
1.84
1.502
2.355
3.123
3.878
4.496
5.42
6.759
8.078
9.204
10.139
10.849
11.342
11.646
11.777
11.773
11.703
11.596
11.431
11.198
10.892
10.501
10.024
9.461
8.811
8.078
7.269
6.382
5.41
4.357
3.229
2.03
0.763
-0.573
-1.969
-3.393
-4.798
-6.14
-7.381
-8.504
-9.515
-10.428
-11.248
-11.981
-12.613
-13.126
-13.515
-13.792
-13.974
-14.058
-14.079
-14.061
-14.086
-14.402
-15.194
-16.437
-17.862
-19.064
-19.723
-19.875
-19.703
-18.839
-16.787
-13.762
-10.927
-9.955
-12.364
-17.072
-20.584
-21.686
-21.268
-24.313
-39.266
-67.847
-103.131
-129.528
-125.378
-78.055
7.433
109.138
194.852
239.356
235.877
195.519
139.128
83.014
33.324
-12.242
-59.858
-110.732
-161.303
-206.241
-239.084
-256.721
-259.254
-248.151
-226.613
-198.498
-167.452
-136.737
-109.248
-86.9
-70.622
-60.474
-55.548
-54.289
-54.856
-55.875
-56.362
-55.708
-53.795
-50.71
-46.761
-42.533
-38.703
-35.618
-33.346
-31.793
-30.676
-29.782
-28.999
-28.174
-27.146
-25.822
-24.157
-22.172
-19.933
-17.458
-14.706
-11.621
-8.179
-4.422
-0.438
3.669
7.806
11.888
15.844
19.623
23.182
26.496
29.565
32.392
34.957
37.216
39.08
40.43
41.208
41.4
41.016
40.114
38.752
36.997
34.976
32.819
30.617
28.445
26.328
24.262
22.311
20.591
19.181
18.125
17.45
17.158
17.305
18.005
19.256
20.877
22.865
25.521
28.846
32.675
37.035
41.437
46.707
55.316
66.544
78.057
85.868
82.697
69.243
52.612
40.031
41.788
58.156
79.6
98.77
107.579
104.982
98.187
91.506
88.004
88.437
89.854
91.013
92.019
92.814
93.853
95.215
96.479
97.493
98.291
98.839
99.091
99.047
98.716
98.128
97.362
96.453
95.378
94.133
92.72
91.134
89.382
87.469
85.395
83.172
80.816
78.342
75.768
73.112
70.386
67.601
64.767
61.89
58.98
56.045
53.094
50.137
47.185
44.245
41.329
38.447
35.608
32.821
30.091
27.426
24.83
22.309
19.868
17.511
15.241
13.062
10.977
8.99
7.102
5.315
3.628
2.042
0.557
-0.83
-2.12
-3.316
-4.421
-5.438
-6.37
-7.221
-7.995
-8.694
-9.324
-9.887
-10.387
-10.83
-11.217
-11.555
-11.846
-12.094
-12.302
-12.473
-12.609
-12.715
-12.791
-12.842
-12.87
-12.877
-12.866
-12.839
-12.798
-12.746
-12.683
-12.611
-12.53
-12.442
-12.346
-12.243
-12.133
-12.015
-11.889
-11.755
-11.612
-11.46
-11.297
-11.123
-10.937
-10.739
-10.528
-10.305
-10.069
-9.821
-9.563
-9.295
-9.018
-8.734
-8.443
-8.149
-7.85
-7.55
-7.249
-6.949
-6.65
-6.354
-6.062
-5.776
-5.497
-5.226
-4.964
-4.714
-4.475
-4.25
-4.039
-3.843
-3.664
-3.503
-3.361
-3.24
-3.139
-3.061
-3.005
-2.971
-2.958
-2.966
-2.992
-3.034
-3.089
-3.153
-3.223
-3.295
-3.364
-3.428
-3.481
-3.521
-3.545
-3.55
-3.532
-3.49
-3.421
-3.324
-3.196
-3.038
-2.848
-2.626
-2.372
-2.086
-1.769
-1.421
-1.044
-0.64
-0.21
0.245
0.723
1.221
1.737
2.266
2.804
3.344
3.881
4.406
4.91
5.383
5.816
6.203
6.539
6.823
7.051
7.22
7.326
7.367
7.342
7.248
7.08
6.828
6.485
6.045
5.512
4.888
4.171
3.35
2.413
1.351
0.164
-1.147
-2.576
-4.122
-5.782
-7.541
-9.377
-11.254
-13.127
-14.963
-16.747
-18.466
-20.096
-21.597
-22.901
-23.96
-24.776
-25.396
-25.901
-26.35
-26.766
-27.139
-27.503
-28.003
-28.714
-29.541
-30.201
-30.354
-29.889
-29.053
-28.155
-27.186
-26.166
-25.315
-25.188
-26.718
-30.351
-35.678
-42.067
-49.116
-56.386
-63.434
-69.253
-71.942
-70.106
-63.182
-50.879
-33.245
-10.432
17.53
49.479
82.807
114.791
142.509
163.07
174.334
174.107
160.248
132.383
91.832
40.987
-16.22
-75.468
-132.822
-183.793
-224.202
-251.643
-265.05
-264.773
-253.021
-232.498
-206.141
-177.775
-150.772
-127.28
-108.783
-95.754
-87.596
-83.556
-82.489
-82.596
-82.554
-81.678
-79.54
-76.237
-72.124
-67.44
-62.64
-58.38
-54.997
-52.601
-51.165
-50.427
-50.148
-50.187
-50.332
-50.395
-50.278
-49.905
-49.26
-48.389
-47.308
-46.025
-44.556
-42.903
-41.083
-39.138
-37.1
-35.013
-32.926
-30.878
-28.918
-27.074
-25.355
-23.765
-22.298
-20.944
-19.695
-18.537
-17.454
-16.439
-15.486
-14.581
-13.716
-12.877
-12.048
-11.212
-10.354
-9.458
-8.513
-7.511
-6.444
-5.307
-4.097
-2.81
-1.446
-0.003
1.523
3.133
4.829
6.613
8.483
10.438
12.476
14.593
16.782
19.039
21.355
23.724
26.137
28.587
31.065
33.562
36.069
38.577
41.075
43.554
46.001
48.407
50.759
53.045
55.254
57.373
59.392
61.3
63.084
64.735
66.243
67.599
68.794
69.82
70.669
71.337
71.818
72.106
72.2
72.096
71.792
71.289
70.587
69.686
68.589
67.297
65.816
64.148
62.3
60.278
58.087
55.737
53.235
50.591
47.814
44.916
41.905
38.795
35.596
32.321
28.981
25.588
22.156
18.697
15.221
11.743
8.272
4.821
1.399
-1.981
-5.311
-8.58
-11.778
-14.896
-17.926
-20.858
-23.685
-26.4
-28.996
-31.466
-33.806
-36.01
-38.076
-39.999
-41.776
-43.407
-44.889
-46.221
-47.404
-48.437
-49.322
-50.059
-50.652
-51.101
-51.411
-51.585
-51.626
-51.538
-51.326
-50.993
-50.545
-49.986
-49.322
-48.558
-47.701
-46.758
-45.734
-44.637
-43.474
-42.252
-40.978
-39.659
-38.302
-36.915
-35.504
-34.076
-32.639
-31.199
-29.762
-28.337
-26.929
-25.545
-24.192
-22.876
-21.601
-20.376
-19.204
-18.091
-17.043
-16.064
-15.159
-14.333
-13.59
-12.933
-12.365
-11.889
-11.506
-11.217
-11.024
-10.926
-10.923
-11.013
-11.196
-11.471
-11.834
-12.283
-12.816
-13.428
-14.116
-14.876
-15.701
-16.588
-17.53
-18.521
-19.555
-20.625
-21.726
-22.849
-23.986
-25.131
-26.274
-27.408
-28.524
-29.613
-30.668
-31.681
-32.644
-33.551
-34.398
-35.177
-35.886
-36.519
-37.074
-37.547
-37.937
-38.241
-38.458
-38.588
-38.632
-38.591
-38.468
-38.264
-37.983
-37.628
-37.205
-36.718
-36.173
-35.574
-34.929
-34.245
-33.529
-32.793
-32.045
-31.295
-30.552
-29.825
-29.124
-28.458
-27.832
-27.253
-26.723
-26.25
-25.837
-25.491
-25.213
-25.008
-24.877
-24.823
-24.851
-24.964
-25.165
-25.457
-25.841
-26.32
-26.891
-27.549
-28.288
-29.096
-29.96
-30.868
-31.799
-32.735
-33.658
-34.544
-35.368
-36.108
-36.731
-37.207
-37.513
-37.638
-37.59
-37.396
-37.078
-36.665
-36.196
-35.705
-35.242
-34.848
-34.533
-34.312
-34.188
-34.183
-34.366
-34.815
-35.547
-36.513
-37.576
-38.519
-39.204
-39.508
-39.141
-37.873
-35.555
-32.215
-28.32
-24.465
-20.95
-17.835
-15.269
-13.125
-10.932
-7.866
-2.216
7.851
22.206
39.125
57.616
76.956
99.594
130.057
167.002
204.455
231.327
233.59
204.258
143.681
59.218
-35.985
-127.571
-200.839
-245.494
-258.511
-245.077
-219.447
-195.033
-178.661
-171.021
-165.678
-157.337
-146.055
-133.833
-123.637
-116.611
-111.199
-105.337
-97.996
-89.049
-78.502
-66.611
-53.637
-39.874
-26.108
-13.233
-1.676
8.336
16.608
23.15
27.927
30.919
32.329
32.395
31.326
29.364
26.75
23.709
20.455
17.151
13.902
10.811
7.98
5.515
3.529
2.087
1.226
0.97
1.319
2.263
3.749
5.676
7.901
10.272
12.679
15.053
17.352
19.543
21.587
23.452
25.114
26.57
27.823
28.868
29.702
30.328
30.766
31.061
31.279
31.487
31.735
32.056
32.474
33.009
33.676
34.486
35.442
36.537
37.77
39.142
40.661
42.333
44.159
46.131
48.24
50.476
52.827
55.286
57.843
60.488
63.212
66.008
68.87
71.793
74.767
77.782
80.824
83.879
86.931
89.964
92.961
95.904
98.777
101.562
104.244
106.808
109.237
111.519
113.64
115.586
117.346
118.91
120.266
121.405
122.321
123.005
123.453
123.659
123.621
123.336
122.806
122.03
121.011
119.754
118.262
116.543
114.602
112.45
110.097
107.552
104.83
101.943
98.905
95.731
92.438
89.04
85.554
81.995
78.38
74.724
71.043
67.351
63.663
59.994
56.356
52.763
49.227
45.76
42.371
39.072
35.871
32.775
29.794
26.932
24.195
21.588
19.115
16.778
14.578
12.517
10.595
8.812
7.165
5.654
4.274
3.024
1.9
0.903
0.026
-0.74
-1.401
-1.965
-2.438
-2.817
-3.111
-3.337
-3.495
-3.564
-3.532
-3.381
-3.115
-2.777
-2.374
-1.872
-1.305
-0.761
-0.307
-0.02
0.091
0.133
0.13
-0.036
-0.24
-0.066
0.557
1.51
2.844
4.091
6.143
11.587
19.741
28.275
33.167
27.021
10.608
-8.735
-23.589
-23.439
-8.062
12.675
31.177
39.112
35.368
27.328
19.425
14.834
14.371
15.025
15.501
15.844
15.954
16.332
17.04
17.592
17.812
17.699
17.235
16.508
15.563
14.312
12.913
11.837
11.187
10.82
10.785
10.656
11.258
15.06
21.479
28.274
31.679
24.689
7.891
-11.707
-27.072
-28.225
-14.738
4.004
20.76
27.647
23.455
15.216
7.195
2.365
1.553
1.887
2.099
2.276
2.322
2.669
3.413
4.159
4.79
5.363
5.86
6.255
6.557
6.775
6.94
7.113
7.309
7.493
7.653
7.787
7.888
7.956
7.981
7.951
7.861
7.711
7.5
7.225
6.884
6.47
5.985
5.432
4.809
4.119
3.363
2.546
1.677
0.771
-0.16
-1.1
-2.038
-2.96
-3.849
-4.685
-5.449
-6.126
-6.716
-7.233
-7.694
-8.123
-8.542
-8.974
-9.455
-10.016
-10.679
-11.455
-12.337
-13.306
-14.344
-15.466
-16.734
-18.195
-19.822
-21.522
-23.104
-24.387
-25.337
-25.821
-25.515
-24.199
-21.764
-18.368
-14.708
-11.413
-8.491
-6.038
-4.374
-3.286
-2.473
-1.153
2.758
9.538
16.888
23.816
30.613
41.457
64.052
99.284
138.867
166.906
165.907
129.494
65.595
-7.834
-73.296
-121.855
-153.559
-174.603
-189.237
-197.694
-199.199
-192.541
-178.464
-160.088
-140.139
-120.778
-104.169
-91.4
-82.502
-77.037
-73.848
-71.433
-69.066
-66.403
-62.917
-58.482
-53.19
-47.195
-41.096
-35.591
-30.954
-27.256
-24.5
-22.514
-21.175
-20.41
-20.003
-19.718
-19.414
-19
-18.449
-17.776
-16.966
-15.986
-14.814
-13.442
-11.879
-10.15
-8.283
-6.309
-4.266
-2.193
-0.137
1.854
3.75
5.536
7.208
8.769
10.224
11.574
12.824
13.985
15.064
16.072
17.017
17.909
18.761
19.586
20.402
21.226
22.071
22.948
23.865
24.828
25.841
26.907
28.029
29.207
30.442
31.737
33.096
34.52
36.012
37.573
39.203
40.9
42.664
44.491
46.375
48.312
50.296
52.321
54.381
56.469
58.578
60.701
62.828
64.95
67.058
69.14
71.185
73.182
75.12
76.988
78.774
80.469
82.063
83.547
84.91
86.146
87.246
88.201
89.006
89.652
90.135
90.45
90.593
90.56
90.35
89.96
89.392
88.643
87.716
86.611
85.331
83.879
82.259
80.475
78.533
76.441
74.207
71.838
69.345
66.737
64.025
61.219
58.329
55.367
52.341
49.264
46.145
42.995
39.824
36.641
33.457
30.279
27.117
23.978
20.872
17.804
14.783
11.814
8.906
6.065
3.297
0.608
-1.995
-4.507
-6.923
-9.239
-11.451
-13.556
-15.552
-17.436
-19.208
-20.866
-22.411
-23.841
-25.157
-26.36
-27.449
-28.425
-29.288
-30.04
-30.68
-31.21
-31.63
-31.941
-32.143
-32.237
-32.225
-32.106
-31.884
-31.559
-31.134
-30.612
-29.997
-29.292
-28.501
-27.63
-26.684
-25.668
-24.587
-23.447
-22.254
-21.014
-19.733
-18.416
-17.07
-15.703
-14.319
-12.927
-11.534
-10.148
-8.775
-7.424
-6.103
-4.82
-3.585
-2.404
-1.288
-0.243
0.721
1.596
2.377
3.055
3.625
4.083
4.424
4.645
4.744
4.72
4.573
4.304
3.914
3.405
2.781
2.046
1.203
0.258
-0.782
-1.912
-3.122
-4.405
-5.753
-7.154
-8.599
-10.077
-11.577
-13.085
-14.589
-16.077
-17.534
-18.946
-20.301
-21.584
-22.784
-23.888
-24.886
-25.769
-26.529
-27.158
-27.652
-28.006
-28.217
-28.283
-28.204
-27.981
-27.614
-27.109
-26.468
-25.699
-24.807
-23.801
-22.69
-21.484
-20.193
-18.828
-17.402
-15.927
-14.418
-12.891
-11.362
-9.849
-8.368
-6.938
-5.575
-4.295
-3.114
-2.043
-1.094
-0.275
0.405
0.938
1.317
1.536
1.592
1.482
1.201
0.748
0.121
-0.682
-1.663
-2.819
-4.15
-5.654
-7.322
-9.146
-11.112
-13.201
-15.393
-17.662
-19.982
-22.331
-24.673
-26.97
-29.187
-31.287
-33.231
-34.993
-36.545
-37.876
-38.999
-39.93
-40.701
-41.358
-41.937
-42.486
-43.047
-43.633
-44.278
-45.005
-45.845
-46.883
-48.191
-49.785
-51.659
-53.688
-55.69
-57.573
-59.105
-59.901
-59.693
-58.295
-55.826
-52.905
-50.05
-47.484
-45.644
-44.981
-45.46
-46.608
-46.946
-43.97
-36.902
-26.737
-13.577
3.362
28.689
69.106
124.191
184.764
233.385
250.454
227.936
173.019
102.115
30.6
-37.047
-107.16
-185.907
-268.708
-338.934
-377.168
-373.514
-333.706
-276.982
-222.706
-181.292
-154.245
-135.108
-118.016
-102.058
-88.318
-78.732
-73.784
-71.553
-69.522
-66.232
-61.239
-54.618
-46.894
-38.557
-30.007
-21.947
-15.122
-9.836
-6.204
-4.166
-3.445
-3.882
-5.296
-7.381
-9.873
-12.532
-15.181
-17.76
-20.24
-22.578
-24.748
-26.704
-28.39
-29.769
-30.775
-31.36
-31.514
-31.224
-30.528
-29.494
-28.19
-26.716
-25.156
-23.554
-21.94
-20.328
-18.712
-17.098
-15.495
-13.903
-12.343
-10.836
-9.385
-8.004
-6.683
-5.398
-4.119
-2.8
-1.397
0.116
1.756
3.53
5.435
7.467
9.621
11.881
14.239
16.691
19.232
21.86
24.57
27.35
30.187
33.063
35.957
38.852
41.732
44.583
47.393
50.152
52.852
55.488
58.055
60.548
62.958
65.277
67.496
69.606
71.599
73.466
75.199
76.792
78.238
79.533
80.671
81.649
82.463
83.11
83.587
83.891
84.021
83.975
83.754
83.357
82.786
82.044
81.134
80.059
78.823
77.431
75.886
74.194
72.359
70.385
68.277
66.041
63.681
61.204
58.616
55.924
53.135
50.256
47.295
44.261
41.16
38.001
34.792
31.541
28.257
24.949
21.625
18.294
14.965
11.648
8.35
5.08
1.846
-1.346
-4.487
-7.572
-10.593
-13.543
-16.418
-19.209
-21.911
-24.519
-27.026
-29.429
-31.72
-33.897
-35.955
-37.891
-39.7
-41.38
-42.927
-44.341
-45.619
-46.759
-47.761
-48.625
-49.352
-49.943
-50.4
-50.725
-50.921
-50.993
-50.942
-50.774
-50.493
-50.104
-49.611
-49.019
-48.334
-47.561
-46.707
-45.779
-44.781
-43.722
-42.607
-41.444
-40.24
-39.002
-37.737
-36.452
-35.154
-33.852
-32.552
-31.261
-29.989
-28.74
-27.522
-26.342
-25.206
-24.119
-23.086
-22.113
-21.202
-20.358
-19.585
-18.883
-18.256
-17.705
-17.231
-16.834
-16.514
-16.27
-16.1
-16.003
-15.976
-16.016
-16.121
-16.285
-16.505
-16.777
-17.096
-17.457
-17.853
-18.279
-18.728
-19.194
-19.669
-20.147
-20.619
-21.079
-21.518
-21.929
-22.304
-22.636
-22.918
-23.143
-23.305
-23.399
-23.419
-23.363
-23.227
-23.008
-22.706
-22.32
-21.85
-21.299
-20.667
-19.958
-19.175
-18.321
-17.402
-16.424
-15.391
-14.311
-13.191
-12.037
-10.859
-9.665
-8.463
-7.262
-6.072
-4.903
-3.766
-2.672
-1.632
-0.658
0.241
1.053
1.769
2.382
2.884
3.271
3.539
3.685
3.706
3.601
3.369
3.011
2.527
1.92
1.192
0.344
-0.62
-1.698
-2.886
-4.177
-5.563
-7.034
-8.578
-10.181
-11.826
-13.498
-15.171
-16.827
-18.445
-19.998
-21.464
-22.816
-24.024
-25.058
-25.899
-26.537
-26.981
-27.25
-27.362
-27.34
-27.223
-27.047
-26.858
-26.683
-26.522
-26.388
-26.292
-26.258
-26.333
-26.563
-26.955
-27.494
-28.103
-28.632
-28.955
-28.917
-28.303
-26.956
-24.719
-21.554
-17.756
-13.72
-9.785
-6.225
-3.101
-0.199
2.506
5.387
9.728
16.789
27.832
42.377
57.56
71.069
82.446
96.188
118.758
151.903
190.752
219.266
219.465
181.17
102.063
-2.891
-112.456
-207.739
-267.347
-284.817
-263.787
-212.023
-152.417
-103.209
-73.397
-69.274
-81.227
-95.826
-106.832
-107.498
-99.073
-88.862
-79.015
-71.621
-67.254
-62.55
-56.45
-49.28
-40.979
-32.561
-24.85
-17.681
-10.956
-4.753
1.09
6.6
11.664
16.371
20.822
25.038
29.106
33.074
36.883
40.484
43.796
46.708
49.17
51.134
52.539
53.382
53.674
53.469
52.894
52.037
50.952
49.682
48.223
46.591
44.846
43.049
41.28
39.649
38.23
37.088
36.3
35.888
35.849
36.152
36.709
37.451
38.342
39.358
40.498
41.769
43.156
44.653
46.257
47.944
49.694
51.49
53.306
55.136
56.992
58.896
60.891
63.016
65.292
67.732
70.339
73.106
76.027
79.089
82.266
85.542
88.902
92.332
95.824
99.362
102.926
106.495
110.043
113.542
116.966
120.291
123.493
126.552
129.448
132.164
134.689
137.008
139.107
140.974
142.592
143.949
145.033
145.832
146.336
146.537
146.428
146.005
145.267
144.218
142.86
141.189
139.209
136.924
134.341
131.476
128.338
124.924
121.252
117.362
113.286
109.065
104.717
100.226
95.601
90.902
86.127
81.209
76.102
70.754
65.172
59.483
53.749
47.874
41.981
36.51
31.596
27.118
23.148
19.279
16.244
16.697
20.298
24.541
25.637
16.123
-4.136
-27.49
-46.52
-50.668
-38.453
-20.028
-3.302
3.44
-1.906
-11.802
-21.418
-27.704
-29.457
-29.739
-30.101
-30.412
-30.815
-30.875
-30.447
-29.965
-29.58
-29.233
-28.941
-28.737
-28.616
-28.568
-28.565
-28.543
-28.484
-28.424
-28.381
-28.353
-28.345
-28.355
-28.384
-28.442
-28.532
-28.647
-28.782
-28.936
-29.104
-29.285
-29.475
-29.671
-29.868
-30.062
-30.249
-30.425
-30.585
-30.725
-30.841
-30.93
-30.989
-31.016
-31.009
-30.968
-30.892
-30.781
-30.635
-30.456
-30.244
-30.001
-29.731
-29.435
-29.119
-28.786
-28.442
-28.092
-27.742
-27.396
-27.06
-26.738
-26.435
-26.154
-25.899
-25.672
-25.477
-25.317
-25.194
-25.112
-25.071
-25.073
-25.117
-25.203
-25.329
-25.491
-25.685
-25.907
-26.152
-26.415
-26.693
-26.982
-27.276
-27.569
-27.857
-28.133
-28.391
-28.623
-28.821
-28.978
-29.088
-29.146
-29.146
-29.086
-28.963
-28.777
-28.527
-28.216
-27.843
-27.406
-26.906
-26.344
-25.72
-25.034
-24.288
-23.485
-22.628
-21.728
-20.793
-19.835
-18.864
-17.89
-16.922
-15.971
-15.047
-14.155
-13.297
-12.478
-11.705
-10.994
-10.37
-9.849
-9.44
-9.148
-8.979
-8.928
-8.986
-9.12
-9.28
-9.429
-9.541
-9.61
-9.649
-9.664
-9.661
-9.641
-9.595
-9.52
-9.421
-9.287
-9.099
-8.875
-8.655
-8.538
-8.684
-9.215
-10.212
-11.733
-13.789
-16.38
-19.483
-23.038
-26.968
-31.216
-35.749
-40.545
-45.58
-50.751
-55.868
-60.667
-64.819
-67.975
-69.796
-70.085
-68.811
-66.118
-62.379
-57.927
-52.999
-47.927
-42.944
-37.843
-32.045
-24.554
-14.133
-0.076
17.83
39.82
65.706
94.42
124.045
151.554
173.619
187.663
191.613
183.678
162.762
128.934
83.856
30.889
-26.112
-83.12
-136.187
-181.998
-217.253
-241.152
-254.58
-257.226
-250.574
-233.943
-206.433
-174.634
-143.557
-119.291
-108.383
-105.571
-106.064
-105.847
-98.678
-87.429
-75.135
-62.252
-51.137
-40.77
-29.889
-19.503
-10.191
-2.537
2.865
6.2
7.837
7.868
6.479
3.981
0.725
-2.926
-6.705
-10.472
-14.174
-17.717
-20.977
-23.813
-26.073
-27.675
-28.585
-28.801
-28.337
-27.202
-25.449
-23.172
-20.514
-17.649
-14.697
-11.725
-8.774
-5.874
-3.061
-0.389
2.097
4.39
6.48
8.363
10.035
11.483
12.719
13.781
14.731
15.636
16.548
17.494
18.49
19.552
20.688
21.904
23.2
24.565
25.999
27.517
29.13
30.844
32.662
34.57
36.545
38.557
40.562
42.515
44.387
46.158
47.825
49.405
50.917
52.382
53.824
55.247
56.657
58.068
59.481
60.909
62.385
63.952
65.685
67.678
69.983
72.625
75.605
78.874
82.378
86.044
89.766
93.465
97.077
100.532
103.789
106.807
109.509
111.81
113.592
114.711
115.074
114.621
113.316
111.189
108.293
104.708
100.572
96.001
91.08
85.89
80.479
74.888
69.187
63.45
57.765
52.253
47.001
42.073
37.527
33.371
29.586
26.13
22.913
19.855
16.91
14.041
11.232
8.484
5.781
3.113
0.475
-2.163
-4.821
-7.513
-10.258
-13.053
-15.879
-18.708
-21.491
-24.179
-26.743
-29.159
-31.413
-33.503
-35.422
-37.172
-38.763
-40.198
-41.476
-42.598
-43.559
-44.36
-45.005
-45.502
-45.864
-46.102
-46.227
-46.247
-46.172
-46.008
-45.759
-45.429
-45.019
-44.53
-43.967
-43.334
-42.637
-41.883
-41.08
-40.232
-39.35
-38.439
-37.507
-36.56
-35.605
-34.646
-33.691
-32.745
-31.814
-30.903
-30.016
-29.158
-28.334
-27.546
-26.8
-26.097
-25.442
-24.836
-24.282
-23.78
-23.334
-22.942
-22.606
-22.325
-22.098
-21.925
-21.805
-21.736
-21.718
-21.747
-21.821
-21.938
-22.094
-22.285
-22.507
-22.754
-23.022
-23.306
-23.601
-23.899
-24.197
-24.488
-24.768
-25.033
-25.278
-25.497
-25.685
-25.837
-25.948
-26.013
-26.028
-25.988
-25.889
-25.73
-25.51
-25.228
-24.883
-24.476
-24.005
-23.472
-22.877
-22.217
-21.496
-20.718
-19.888
-19.013
-18.1
-17.15
-16.171
-15.179
-14.17
-13.124
-12.03
-10.875
-9.663
-8.429
-7.184
-5.923
-4.715
-3.674
-2.878
-2.39
-2.198
-2.206
-2.365
-2.679
-2.91
-2.587
-1.597
-0.095
1.857
3.812
6.421
11.596
18.43
24.759
26.968
18.532
-0.766
-26.189
-51.528
-65.421
-61.001
-38.651
-1.263
41.205
73.59
84.928
69.29
27.58
-23.81
-65.521
-85.509
-76.127
-46.669
-14.628
9.812
18.588
13.526
4.088
-5.243
-11.381
-13.73
-15.353
-17.195
-19.046
-21.065
-22.765
-24.016
-25.226
-26.544
-27.975
-29.551
-31.182
-32.597
-33.511
-33.698
-33.005
-31.391
-28.76
-25.014
-20.164
-14.403
-8.209
-2.151
3.416
8.356
12.539
16.112
19.478
23.256
28.656
37.037
49.27
65.483
85.251
107.312
129.396
148.553
161.368
164.188
155.265
135.91
105.942
65.102
12.989
-53.694
-129.615
-202.269
-259.864
-288.452
-285.78
-263.075
-230.701
-200.488
-178.072
-158.859
-140.72
-122.651
-104.666
-90.12
-79.858
-72.428
-66.309
-59.917
-52.454
-43.922
-34.454
-24.162
-13.424
-2.948
6.439
14.202
20.141
24.275
26.801
27.865
27.583
26.219
24.112
21.559
18.826
16.082
13.378
10.773
8.353
6.2
4.421
3.121
2.336
2.082
2.366
3.168
4.472
6.227
8.334
10.671
13.11
15.561
17.979
20.339
22.615
24.778
26.796
28.636
30.294
31.771
33.063
34.172
35.098
35.857
36.491
37.056
37.611
38.199
38.846
39.569
40.382
41.298
42.328
43.474
44.732
46.1
47.581
49.181
50.905
52.754
54.722
56.798
58.971
61.23
63.566
65.971
68.435
70.952
73.513
76.113
78.75
81.417
84.104
86.8
89.494
92.172
94.822
97.429
99.979
102.458
104.85
107.144
109.324
111.378
113.293
115.055
116.651
118.069
119.297
120.325
121.141
121.738
122.105
122.238
122.129
121.774
121.169
120.313
119.204
117.842
116.23
114.37
112.265
109.921
107.345
104.545
101.529
98.309
94.894
91.299
87.535
83.618
79.562
75.381
71.093
66.712
62.255
57.74
53.183
48.6
44.009
39.425
34.866
30.347
25.885
21.493
17.187
12.98
8.885
4.913
1.077
-2.616
-6.156
-9.536
-12.751
-15.794
-18.664
-21.356
-23.869
-26.202
-28.356
-30.332
-32.132
-33.759
-35.216
-36.509
-37.642
-38.621
-39.452
-40.142
-40.697
-41.124
-41.431
-41.626
-41.715
-41.709
-41.614
-41.439
-41.192
-40.881
-40.514
-40.099
-39.642
-39.149
-38.627
-38.08
-37.513
-36.932
-36.339
-35.739
-35.135
-34.528
-33.923
-33.32
-32.722
-32.129
-31.543
-30.964
-30.393
-29.831
-29.279
-28.738
-28.208
-27.69
-27.186
-26.695
-26.218
-25.755
-25.307
-24.871
-24.449
-24.04
-23.644
-23.261
-22.89
-22.532
-22.187
-21.855
-21.537
-21.233
-20.941
-20.662
-20.396
-20.14
-19.896
-19.662
-19.437
-19.222
-19.016
-18.818
-18.628
-18.443
-18.261
-18.079
-17.895
-17.705
-17.505
-17.293
-17.065
-16.819
-16.555
-16.27
-15.962
-15.63
-15.272
-14.887
-14.473
-14.029
-13.553
-13.044
-12.504
-11.934
-11.334
-10.709
-10.06
-9.392
-8.71
-8.018
-7.321
-6.62
-5.919
-5.222
-4.532
-3.853
-3.189
-2.545
-1.929
-1.348
-0.813
-0.333
0.082
0.425
0.692
0.877
0.975
0.984
0.906
0.739
0.478
0.114
-0.367
-0.974
-1.71
-2.572
-3.553
-4.633
-5.783
-6.969
-8.155
-9.31
-10.416
-11.471
-12.482
-13.459
-14.412
-15.334
-16.21
-17.023
-17.757
-18.404
-18.968
-19.485
-20.026
-20.694
-21.597
-22.823
-24.432
-26.437
-28.829
-31.575
-34.6
-37.833
-41.22
-44.708
-48.274
-51.925
-55.61
-59.19
-62.465
-65.13
-66.871
-67.49
-66.775
-64.516
-60.685
-55.394
-48.94
-41.889
-34.738
-27.59
-20.51
-13.542
-6.324
1.488
10.331
21.15
34.575
50.324
67.969
86.832
105.19
121.407
133.832
139.946
137.912
127.239
107.504
78.866
43.271
2.816
-40.043
-81.588
-119.019
-150.756
-174.919
-190.151
-196.783
-195.438
-187.509
-175.676
-161.701
-146.579
-131.759
-118.476
-107.181
-98.198
-91.139
-84.775
-78.59
-72.513
-66.308
-59.861
-53.149
-46.117
-39.077
-32.685
-27.27
-22.913
-19.611
-17.209
-15.607
-14.74
-14.445
-14.463
-14.569
-14.609
-14.495
-14.216
-13.768
-13.122
-12.251
-11.142
-9.807
-8.273
-6.582
-4.77
-2.86
-0.893
1.088
3.037
4.898
6.636
8.238
9.701
11.029
12.229
13.304
14.26
15.116
15.888
16.594
17.251
17.868
18.459
19.045
19.644
20.276
20.958
21.7
22.511
23.399
24.372
25.434
26.59
27.842
29.19
30.639
32.191
33.85
35.616
37.489
39.465
41.543
43.717
45.982
48.329
50.75
53.237
55.778
58.365
60.985
63.626
66.276
68.92
71.545
74.136
76.677
79.154
81.55
83.85
86.04
88.106
90.033
91.808
93.417
94.847
96.085
97.12
97.942
98.541
98.911
99.044
98.936
98.584
97.985
97.14
96.049
94.714
93.139
91.329
89.291
87.033
84.564
81.894
79.036
76.004
72.811
69.472
66.002
62.415
58.727
54.955
51.114
47.217
43.281
39.321
35.357
31.404
27.481
23.603
19.786
16.047
12.399
8.853
5.417
2.095
-1.107
-4.185
-7.132
-9.946
-12.622
-15.159
-17.556
-19.805
-21.908
-23.866
-25.69
-27.4
-29.006
-30.508
-31.9
-33.169
-34.307
-35.312
-36.172
-36.868
-37.395
-37.757
-37.978
-38.108
-38.175
-38.196
-38.173
-38.087
-37.943
-37.767
-37.588
-37.439
-37.356
-37.364
-37.516
-37.89
-38.523
-39.417
-40.53
-41.765
-43.059
-44.381
-45.71
-47.045
-48.369
-49.632
-50.8
-51.845
-52.724
-53.401
-53.8
-53.799
-53.343
-52.428
-51.103
-49.485
-47.657
-45.659
-43.534
-41.311
-39.027
-36.734
-34.463
-32.216
-30.023
-27.919
-25.976
-24.304
-22.963
-21.963
-21.279
-20.837
-20.586
-20.505
-20.563
-20.729
-20.98
-21.292
-21.662
-22.115
-22.657
-23.276
-23.945
-24.613
-25.251
-25.855
-26.43
-26.998
-27.573
-28.16
-28.769
-29.417
-30.11
-30.854
-31.643
-32.454
-33.272
-34.091
-34.904
-35.71
-36.505
-37.275
-38.01
-38.698
-39.328
-39.893
-40.387
-40.799
-41.123
-41.346
-41.454
-41.441
-41.304
-41.043
-40.664
-40.181
-39.605
-38.967
-38.308
-37.67
-37.094
-36.603
-36.196
-35.872
-35.628
-35.465
-35.39
-35.394
-35.445
-35.518
-35.587
-35.619
-35.581
-35.396
-34.94
-34.099
-32.758
-30.847
-28.349
-25.252
-21.556
-17.285
-12.475
-7.213
-1.634
4.145
10.017
15.871
21.59
26.981
31.78
35.74
38.615
40.205
40.376
38.987
35.924
31.135
24.623
16.481
6.886
-3.989
-15.983
-28.904
-42.542
-56.618
-70.752
-84.564
-97.66
-109.628
-120.083
-128.632
-134.857
-138.386
-139.058
-136.911
-132.196
-125.359
-116.742
-106.607
-95.402
-83.568
-71.195
-58.004
-43.258
-25.961
-5.597
17.942
44.83
74.886
107.138
139.743
169.733
193.865
209.53
214.585
207.241
186.387
152.09
106.089
51.999
-6.046
-63.967
-117.668
-163.642
-198.818
-221.12
-230.351
-228.056
-216.441
-198.267
-176.663
-154.211
-133.409
-116.208
-103.294
-94.505
-89.236
-86.364
-84.53
-82.817
-80.4
-76.742
-71.869
-65.982
-59.44
-52.826
-46.754
-41.56
-37.416
-34.34
-32.156
-30.702
-29.794
-29.177
-28.597
-27.897
-27.003
-25.884
-24.562
-23.035
-21.287
-19.325
-17.162
-14.818
-12.323
-9.71
-7.01
-4.27
-1.546
1.103
3.619
5.961
8.114
10.068
11.819
13.371
14.726
15.895
16.894
17.734
18.43
18.994
19.439
19.783
20.044
20.247
20.416
20.575
20.742
20.934
21.161
21.444
21.803
22.237
22.746
23.334
23.997
24.759
25.654
26.673
27.805
29.101
30.601
32.334
34.343
36.592
39.008
41.626
44.508
47.465
50.273
53.053
55.779
58.399
61.362
63.406
63.301
62.764
62.303
65.083
74.898
87.509
100.085
108.419
106.74
100.117
92.845
87.861
90.033
95.852
101.767
106.976
109.311
110.014
110.687
111.016
111.203
111.137
110.491
109.48
108.276
106.829
105.132
103.214
101.078
98.724
96.158
93.362
90.314
87.045
83.587
79.952
76.159
72.227
68.173
64.02
59.793
55.51
51.189
46.848
42.507
38.185
33.901
29.67
25.511
21.437
17.465
13.608
9.877
6.285
2.842
-0.443
-3.562
-6.51
-9.282
-11.873
-14.281
-16.506
-18.548
-20.408
-22.089
-23.595
-24.93
-26.1
-27.11
-27.968
-28.68
-29.254
-29.697
-30.018
-30.224
-30.323
-30.322
-30.23
-30.053
-29.799
-29.474
-29.085
-28.639
-28.141
-27.599
-27.017
-26.4
-25.754
-25.083
-24.391
-23.682
-22.958
-22.222
-21.475
-20.719
-19.956
-19.186
-18.408
-17.624
-16.833
-16.034
-15.228
-14.415
-13.594
-12.766
-11.931
-11.091
-10.248
-9.404
-8.562
-7.725
-6.896
-6.081
-5.283
-4.506
-3.755
-3.035
-2.348
-1.702
-1.099
-0.543
-0.04
0.407
0.794
1.118
1.376
1.566
1.685
1.732
1.703
1.599
1.416
1.155
0.816
0.399
-0.097
-0.668
-1.312
-2.022
-2.791
-3.62
-4.503
-5.434
-6.405
-7.399
-8.406
-9.43
-10.455
-11.446
-12.371
-13.197
-13.909
-14.537
-15.078
-15.482
-15.765
-16.009
-16.275
-16.636
-17.101
-17.557
-17.962
-18.431
-18.856
-18.805
-18.161
-17.059
-15.445
-13.749
-11.232
-5.208
3.945
13.657
20.036
15.449
-0.217
-19.191
-33.923
-33.657
-16.951
5.836
26.635
36.968
34.725
27.584
20.458
16.473
16.847
18.47
19.791
20.964
21.872
22.985
24.468
25.9
27.136
28.243
29.204
29.997
30.617
31.053
31.304
31.389
31.289
30.933
30.255
29.21
27.755
25.859
23.494
20.615
17.196
13.255
8.848
4.065
-1
-6.286
-11.734
-17.261
-22.761
-28.044
-32.997
-37.664
-41.983
-45.779
-48.634
-49.776
-48.773
-45.772
-40.904
-34.212
-25.954
-16.445
-6.87
0.459
4.174
4.171
0.717
-5.476
-13.388
-21.798
-27.801
-26.819
-17.054
0.151
23.229
51.225
88.011
139.945
206.347
276.681
331.374
350.201
323.961
258.673
172.883
85.821
10.114
-50.2
-99.125
-139.241
-169.872
-189.243
-193.882
-183.662
-162.261
-133.961
-103.821
-75.997
-52.566
-34.845
-23.523
-18.089
-17.463
-20.192
-24.175
-27.787
-30.219
-30.929
-29.866
-27.383
-23.815
-19.706
-15.82
-12.571
-10.103
-8.454
-7.416
-6.772
-6.377
-5.998
-5.44
-4.639
-3.565
-2.249
-0.752
0.92
2.763
4.75
6.878
9.128
11.479
13.924
16.426
18.928
21.376
23.708
25.885
27.898
29.735
31.39
32.864
34.151
35.257
36.194
36.963
37.561
37.99
38.25
38.352
38.311
38.144
37.869
37.502
37.057
36.549
35.994
35.403
34.786
34.152
33.507
32.863
32.231
31.621
31.047
30.519
30.047
29.644
29.32
29.083
28.942
28.902
28.968
29.145
29.436
29.843
30.368
31.01
31.77
32.645
33.632
34.726
35.921
37.211
38.585
40.034
41.548
43.113
44.717
46.348
47.993
49.638
51.27
52.877
54.444
55.958
57.406
58.775
60.05
61.218
62.268
63.185
63.96
64.582
65.041
65.329
65.438
65.363
65.096
64.636
63.977
63.118
62.059
60.8
59.344
57.694
55.856
53.836
51.642
49.283
46.767
44.107
41.313
38.396
35.37
32.246
29.038
25.76
22.425
19.048
15.642
12.223
8.804
5.4
2.024
-1.31
-4.59
-7.802
-10.934
-13.976
-16.917
-19.745
-22.453
-25.031
-27.472
-29.769
-31.917
-33.912
-35.751
-37.43
-38.95
-40.31
-41.51
-42.552
-43.439
-44.173
-44.758
-45.199
-45.501
-45.668
-45.706
-45.621
-45.419
-45.106
-44.688
-44.171
-43.562
-42.867
-42.092
-41.242
-40.325
-39.344
-38.307
-37.219
-36.084
-34.908
-33.695
-32.45
-31.177
-29.878
-28.559
-27.22
-25.864
-24.493
-23.108
-21.709
-20.296
-18.869
-17.428
-15.971
-14.497
-13.006
-11.498
-9.971
-8.424
-6.856
-5.267
-3.656
-2.025
-0.373
1.299
2.99
4.697
6.418
8.151
9.894
11.648
13.414
15.189
16.971
18.755
20.538
22.317
24.09
25.853
27.603
29.335
31.049
32.747
34.433
36.107
37.766
39.403
41.008
42.58
44.125
45.653
47.175
48.697
50.224
51.766
53.333
54.932
56.567
58.232
59.917
61.619
63.341
65.098
66.918
68.822
70.785
72.731
74.582
76.285
77.856
79.365
80.83
82.196
83.447
84.692
86.127
87.861
89.747
91.308
92.114
92.164
91.626
90.484
88.778
86.778
84.867
84.408
85.613
86.333
86.625
87.69
92.799
108.879
134.539
161.183
179.753
178.791
158.521
130.415
103.324
86.344
81.252
81.361
83.401
85.008
85.03
85.389
86.438
87.56
88.611
88.962
88.036
85.82
82.496
78.447
74.125
69.789
65.451
60.988
56.386
51.673
46.872
42.021
37.1
32.106
27.095
22.145
17.342
12.759
8.444
4.443
0.767
-2.61
-5.727
-8.65
-11.422
-14.007
-16.454
-18.928
-21.466
-24.062
-26.503
-28.254
-29.088
-29.142
-28.534
-27.477
-26.228
-24.828
-23.953
-25.033
-28.833
-35.6
-45.084
-56.116
-67.781
-79.676
-90.297
-97.126
-98.094
-91.286
-75.984
-53.307
-24.048
11.285
50.823
91.526
129.251
159.256
178.229
184.213
177.015
156.634
121.593
73.291
12.176
-60.383
-134.695
-203.555
-258.55
-290.003
-301.521
-297.353
-282.234
-264.703
-244.409
-220.948
-196.452
-171.132
-148.335
-130.887
-118.549
-110.714
-105.902
-102.153
-98.544
-94.528
-89.614
-83.791
-77.277
-70.457
-63.941
-58.477
-54.532
-52.236
-51.569
-52.262
-53.967
-56.433
-59.379
-62.49
-65.57
-68.477
-71.105
-73.451
-75.52
-77.26
-78.63
-79.556
-79.938
-79.76
-79.052
-77.871
-76.338
-74.547
-72.565
-70.478
-68.347
-66.207
-64.085
-61.974
-59.84
-57.673
-55.475
-53.256
-51.057
-48.889
-46.74
-44.593
-42.408
-40.152
-37.803
-35.332
-32.708
-29.918
-26.954
-23.82
-20.539
-17.126
-13.587
-9.928
-6.15
-2.254
1.751
5.857
10.052
14.324
18.661
23.049
27.467
31.899
36.328
40.742
45.132
49.486
53.791
58.035
62.206
66.291
70.279
74.156
77.91
81.527
84.997
88.31
91.456
94.426
97.212
99.806
102.201
104.391
106.368
108.128
109.665
110.973
112.05
112.891
113.495
113.859
113.982
113.866
113.509
112.915
112.087
111.026
109.738
108.227
106.499
104.56
102.416
100.074
97.541
94.827
91.939
88.886
85.678
82.323
78.833
75.216
71.484
67.646
63.714
59.698
55.611
51.463
47.267
43.035
38.777
34.507
30.234
25.973
21.732
17.525
13.363
9.255
5.213
1.248
-2.631
-6.415
-10.095
-13.663
-17.11
-20.43
-23.616
-26.662
-29.562
-32.313
-34.909
-37.348
-39.627
-41.745
-43.699
-45.491
-47.12
-48.589
-49.899
-51.053
-52.055
-52.91
-53.623
-54.198
-54.644
-54.967
-55.174
-55.275
-55.277
-55.192
-55.028
-54.795
-54.504
-54.166
-53.792
-53.392
-52.978
-52.559
-52.147
-51.752
-51.384
-51.052
-50.766
-50.536
-50.368
-50.272
-50.254
-50.321
-50.479
-50.735
-51.092
-51.555
-52.127
-52.811
-53.609
-54.522
-55.551
-56.695
-57.953
-59.324
-60.805
-62.392
-64.082
-65.869
-67.748
-69.712
-71.754
-73.867
-76.043
-78.274
-80.551
-82.865
-85.21
-87.575
-89.952
-92.332
-94.707
-97.067
-99.404
-101.71
-103.975
-106.191
-108.35
-110.445
-112.468
-114.412
-116.271
-118.037
-119.704
-121.265
-122.716
-124.051
-125.266
-126.356
-127.318
-128.151
-128.854
-129.428
-129.872
-130.19
-130.382
-130.453
-130.404
-130.24
-129.964
-129.581
-129.094
-128.51
-127.835
-127.076
-126.239
-125.333
-124.365
-123.342
-122.272
-121.164
-120.023
-118.858
-117.678
-116.49
-115.306
-114.136
-112.989
-111.874
-110.802
-109.779
-108.811
-107.904
-107.059
-106.277
-105.56
-104.908
-104.323
-103.806
-103.357
-102.979
-102.673
-102.438
-102.275
-102.182
-102.16
-102.21
-102.329
-102.513
-102.758
-103.057
-103.404
-103.791
-104.206
-104.63
-105.044
-105.427
-105.759
-106.021
-106.193
-106.246
-106.154
-105.899
-105.475
-104.891
-104.168
-103.324
-102.384
-101.388
-100.377
-99.387
-98.437
-97.523
-96.64
-95.804
-95.034
-94.369
-93.89
-93.703
-93.904
-94.488
-95.337
-96.272
-97.089
-97.567
-97.297
-95.66
-92.299
-87.479
-81.861
-76.283
-70.365
-62.388
-51.643
-39.11
-29.881
-30.663
-43.852
-66.427
-85.132
-83.755
-53.214
7.732
82.956
148.678
188.008
189.948
161.104
118.174
70.332
21.804
-32.688
-101.706
-181.107
-256.48
-310.39
-330.546
-318.822
-289.43
-257.303
-231.082
-211.618
-193.72
-173.875
-152.249
-130.973
-113.275
-100.019
-90.291
-82.905
-76.064
-68.749
-60.738
-51.803
-42.141
-32.314
-22.774
-14.109
-6.981
-1.645
1.845
3.513
3.63
2.469
0.297
-2.487
-5.56
-8.725
-11.82
-14.786
-17.586
-20.119
-22.281
-23.972
-25.095
-25.621
-25.546
-24.867
-23.632
-21.911
-19.817
-17.52
-15.14
-12.741
-10.368
-8.026
-5.723
-3.486
-1.331
0.738
2.707
4.572
6.334
7.983
9.535
11.024
12.5
14.04
15.697
17.504
19.486
21.652
24.008
26.562
29.311
32.24
35.343
38.615
42.055
45.667
49.447
53.384
57.465
61.67
65.981
70.384
74.86
79.393
83.967
88.567
93.183
97.804
102.418
107.013
111.572
116.078
120.517
124.871
129.124
133.259
137.259
141.11
144.799
148.314
151.644
154.777
157.704
160.416
162.905
165.165
167.189
168.97
170.506
171.792
172.827
173.608
174.136
174.413
174.439
174.218
173.756
173.056
172.124
170.968
169.595
168.013
166.233
164.264
162.118
159.805
157.338
154.73
151.992
149.138
146.181
143.132
140.003
136.807
133.554
130.257
126.926
123.571
120.203
116.831
113.466
110.117
106.793
103.503
100.256
97.06
93.924
90.854
87.858
84.94
82.108
79.367
76.719
74.17
71.722
69.38
67.147
65.025
63.01
61.101
59.295
57.592
55.995
54.502
53.101
51.797
50.614
49.569
48.681
47.946
47.333
46.841
46.491
46.247
46.016
45.721
45.3
44.76
44.183
43.578
42.876
42.21
42.001
42.38
43.186
44.394
45.628
47.686
52.861
60.507
68.426
72.946
66.986
51.146
31.315
13.286
8.758
19.274
38.499
62.857
80.288
86.299
83.794
71.478
57.349
46.73
39.691
39.726
43.464
47.263
50.766
51.951
51.678
51.432
50.98
50.522
49.937
48.918
47.704
46.504
45.335
44.215
43.136
42.092
41.078
40.095
39.119
38.119
37.105
36.097
35.098
34.119
33.163
32.236
31.346
30.503
29.71
28.97
28.287
27.663
27.103
26.608
26.178
25.813
25.511
25.27
25.088
24.959
24.882
24.851
24.862
24.911
24.992
25.101
25.232
25.381
25.542
25.709
25.877
26.04
26.194
26.331
26.447
26.535
26.59
26.607
26.578
26.497
26.356
26.149
25.871
25.517
25.082
24.565
23.964
23.28
22.517
21.678
20.766
19.785
18.735
17.621
16.447
15.217
13.935
12.601
11.218
9.791
8.329
6.842
5.341
3.833
2.327
0.835
-0.627
-2.047
-3.41
-4.706
-5.924
-7.048
-8.058
-8.936
-9.661
-10.217
-10.605
-10.833
-10.912
-10.871
-10.734
-10.527
-10.291
-10.056
-9.839
-9.662
-9.519
-9.398
-9.291
-9.19
-9.108
-9.073
-9.066
-9.018
-8.827
-8.362
-7.55
-6.384
-4.767
-2.526
0.433
4.058
8.015
11.853
15.349
18.6
21.819
25.042
28.252
31.632
35.951
42.197
50.96
62.112
74.587
87.322
99.457
109.857
116.866
118.596
113.393
100.459
80.862
56.202
28.114
-1.249
-29.723
-55.111
-74.956
-87.265
-91.924
-89.675
-81.789
-70.365
-56.972
-42.855
-29.741
-19.29
-12.153
-8.407
-7.389
-7.616
-8.245
-8.927
-9.118
-8.356
-6.402
-3.134
1.102
5.511
9.658
13.421
16.756
19.791
22.613
25.235
27.769
30.403
33.247
36.346
39.682
43.152
46.683
50.255
53.87
57.566
61.364
65.257
69.226
73.241
77.267
81.264
85.189
89.003
92.672
96.181
99.527
102.721
105.776
108.704
111.505
114.168
116.686
119.053
121.271
123.345
125.28
127.083
128.765
130.34
131.819
133.21
134.519
135.744
136.886
137.949
138.935
139.853
140.709
141.513
142.277
143.01
143.723
144.426
145.122
145.813
146.503
147.198
147.908
148.65
149.431
150.254
151.122
152.028
152.957
153.891
154.79
155.614
156.337
156.943
157.429
157.814
158.109
158.329
158.495
158.609
158.676
158.709
158.708
158.685
158.672
158.715
158.889
159.288
159.961
160.929
162.191
163.693
165.374
167.156
168.924
170.595
172.095
173.352
174.319
174.951
175.163
174.866
173.936
172.22
169.621
166.074
161.54
156.048
149.65
142.43
134.534
126.081
117.163
107.866
98.242
88.337
78.23
68.002
57.749
47.602
37.661
28.001
18.692
9.755
1.181
-7.062
-15.053
-22.864
-30.531
-38.079
-45.51
-52.811
-59.986
-67.032
-73.942
-80.733
-87.413
-93.986
-100.462
-106.828
-113.056
-119.108
-124.926
-130.453
-135.654
-140.499
-144.971
-149.064
-152.773
-156.099
-159.053
-161.642
-163.87
-165.742
-167.258
-168.425
-169.257
-169.769
-169.983
-169.922
-169.607
-169.057
-168.295
-167.338
-166.204
-164.909
-163.466
-161.89
-160.197
-158.404
-156.532
-154.597
-152.62
-150.617
-148.608
-146.609
-144.636
-142.704
-140.825
-139.01
-137.272
-135.618
-134.058
-132.599
-131.246
-130.005
-128.88
-127.874
-126.989
-126.225
-125.583
-125.062
-124.659
-124.373
-124.2
-124.135
-124.175
-124.313
-124.543
-124.859
-125.254
-125.719
-126.245
-126.823
-127.445
-128.099
-128.776
-129.467
-130.161
-130.849
-131.522
-132.171
-132.787
-133.363
-133.889
-134.359
-134.766
-135.103
-135.366
-135.547
-135.643
-135.649
-135.562
-135.377
-135.091
-134.699
-134.198
-133.586
-132.861
-132.02
-131.063
-129.991
-128.805
-127.507
-126.102
-124.593
-122.983
-121.277
-119.481
-117.599
-115.639
-113.605
-111.505
-109.347
-107.139
-104.889
-102.605
-100.296
-97.973
-95.644
-93.319
-91.006
-88.713
-86.446
-84.212
-82.02
-79.875
-77.783
-75.751
-73.789
-71.907
-70.118
-68.434
-66.859
-65.392
-64.034
-62.784
-61.641
-60.603
-59.659
-58.806
-58.049
-57.402
-56.888
-56.524
-56.307
-56.225
-56.264
-56.402
-56.625
-56.924
-57.277
-57.664
-58.08
-58.535
-59.059
-59.675
-60.373
-61.097
-61.777
-62.355
-62.807
-63.144
-63.37
-63.503
-63.557
-63.548
-63.517
-63.52
-63.588
-63.736
-63.964
-64.206
-64.461
-64.845
-65.456
-66.363
-67.448
-68.244
-68.244
-67.223
-65.125
-62.04
-58.134
-53.317
-48.169
-44.479
-43.953
-47.851
-55.531
-63.715
-71.278
-79.019
-88.671
-104.116
-121.341
-130.13
-121.877
-86.4
-24.371
51.612
130.248
197.675
245.204
274.416
286.587
284.135
267.175
231.653
174.683
94.007
-3.187
-102.771
-191.138
-252.09
-281.139
-286.202
-274.181
-254.946
-233.835
-207.326
-175.446
-140.556
-105.248
-74.735
-51.954
-36.684
-27.992
-24.401
-23.923
-24.492
-24.811
-24.097
-22.034
-19.09
-15.785
-12.451
-9.709
-8.227
-8.26
-9.833
-12.718
-16.425
-20.59
-24.971
-29.324
-33.468
-37.283
-40.661
-43.548
-45.922
-47.722
-48.884
-49.358
-49.124
-48.222
-46.748
-44.845
-42.647
-40.275
-37.829
-35.371
-32.933
-30.536
-28.187
-25.881
-23.631
-21.461
-19.392
-17.451
-15.656
-14
-12.458
-10.986
-9.537
-8.072
-6.557
-4.971
-3.3
-1.541
0.303
2.219
4.198
6.239
8.342
10.512
12.754
15.065
17.445
19.886
22.382
24.926
27.509
30.126
32.771
35.439
38.129
40.842
43.577
46.33
49.098
51.874
54.65
57.421
60.176
62.905
65.599
68.25
70.852
73.397
75.878
78.285
80.612
82.851
84.992
87.023
88.932
90.703
92.326
93.79
95.089
96.214
97.158
97.914
98.479
98.852
99.032
99.008
98.767
98.289
97.568
96.61
95.428
94.037
92.445
90.668
88.728
86.657
84.474
82.182
79.762
77.193
74.466
71.587
68.585
65.486
62.305
59.042
55.686
52.237
48.689
45.022
41.182
37.097
32.725
28.074
23.204
18.19
13.087
7.943
2.79
-2.328
-7.36
-12.26
-16.988
-21.515
-25.799
-29.768
-33.295
-36.229
-38.457
-39.924
-40.658
-40.707
-40.124
-38.978
-37.35
-35.359
-33.111
-30.682
-28.126
-25.477
-22.79
-20.149
-17.692
-15.576
-13.937
-12.879
-12.436
-12.616
-13.404
-14.741
-16.533
-18.642
-20.945
-23.364
-25.851
-28.381
-30.917
-33.407
-35.776
-37.942
-39.821
-41.329
-42.411
-43.031
-43.181
-42.896
-42.242
-41.32
-40.219
-38.999
-37.699
-36.337
-34.932
-33.5
-32.059
-30.621
-29.207
-27.857
-26.602
-25.474
-24.487
-23.633
-22.891
-22.225
-21.603
-21.002
-20.406
-19.808
-19.208
-18.611
-18.027
-17.472
-16.957
-16.483
-16.049
-15.649
-15.282
-14.951
-14.661
-14.416
-14.223
-14.088
-14.016
-14.01
-14.07
-14.194
-14.376
-14.608
-14.881
-15.19
-15.526
-15.884
-16.258
-16.641
-17.027
-17.41
-17.784
-18.141
-18.471
-18.765
-19.013
-19.204
-19.328
-19.376
-19.338
-19.204
-18.968
-18.624
-18.167
-17.591
-16.894
-16.072
-15.124
-14.049
-12.847
-11.518
-10.065
-8.49
-6.798
-4.995
-3.087
-1.082
1.012
3.185
5.428
7.729
10.078
12.464
14.874
17.295
19.713
22.11
24.471
26.779
29.017
31.166
33.209
35.133
36.923
38.568
40.059
41.385
42.539
43.513
44.302
44.902
45.305
45.504
45.498
45.285
44.87
44.255
43.444
42.44
41.247
39.878
38.345
36.661
34.836
32.88
30.807
28.646
26.429
24.192
21.966
19.769
17.622
15.553
13.586
11.743
10.031
8.432
6.928
5.513
4.176
2.921
1.732
0.568
-0.605
-1.81
-3.055
-4.302
-5.521
-6.704
-7.831
-8.889
-9.83
-10.517
-10.811
-10.573
-9.651
-7.996
-5.512
-1.987
2.64
8.306
14.816
21.605
28.149
34.359
40.123
45.366
50.414
55.433
60.892
68.121
78.172
91.297
107.368
125.372
143.391
159.946
173.067
179.684
177.301
164.233
139.718
104.966
62.674
15.35
-33.722
-80.219
-120.459
-151.134
-169.909
-176.594
-172.489
-159.156
-139.023
-115.292
-90.605
-67.537
-48.124
-33.044
-22.165
-15.057
-10.704
-7.716
-5.186
-2.327
1.433
6.075
11.428
17.237
22.99
28.118
32.355
35.582
37.809
39.264
40.113
40.506
40.684
40.843
41.102
41.545
42.181
42.967
43.905
44.997
46.23
47.608
49.105
50.674
52.282
53.886
55.438
56.897
58.207
59.335
60.267
61.001
61.547
61.925
62.147
62.229
62.198
62.071
61.867
61.61
61.321
61.023
60.745
60.515
60.362
60.312
60.384
60.594
60.955
61.477
62.168
63.033
64.074
65.295
66.703
68.301
70.097
72.093
74.29
76.689
79.287
82.077
85.051
88.192
91.482
94.903
98.437
102.065
105.768
109.522
113.307
117.104
120.891
124.641
128.325
131.903
135.342
138.619
141.718
144.63
147.359
149.903
152.263
154.451
156.47
158.313
159.961
161.373
162.506
163.336
163.85
164.057
163.966
163.562
162.827
161.741
160.263
158.361
155.998
153.106
149.645
145.619
141.061
136.058
130.723
125.133
119.349
113.416
107.366
101.257
95.154
89.105
83.184
77.465
72.036
67.029
62.547
58.627
55.27
52.409
49.934
47.778
45.887
44.212
42.724
41.38
40.137
38.978
37.874
36.782
35.64
34.343
32.803
30.986
28.886
26.543
24.035
21.406
18.693
15.941
13.172
10.406
7.663
4.932
2.2
-0.525
-3.226
-5.862
-8.391
-10.801
-13.089
-15.27
-17.375
-19.423
-21.428
-23.414
-25.392
-27.369
-29.344
-31.302
-33.222
-35.092
-36.904
-38.656
-40.348
-41.976
-43.532
-45.008
-46.395
-47.684
-48.866
-49.932
-50.873
-51.684
-52.363
-52.914
-53.341
-53.651
-53.847
-53.937
-53.927
-53.822
-53.63
-53.356
-53.006
-52.588
-52.108
-51.576
-51
-50.392
-49.76
-49.115
-48.469
-47.832
-47.215
-46.628
-46.082
-45.585
-45.148
-44.779
-44.485
-44.275
-44.153
-44.127
-44.2
-44.376
-44.658
-45.047
-45.543
-46.144
-46.849
-47.653
-48.554
-49.547
-50.627
-51.79
-53.031
-54.344
-55.724
-57.163
-58.654
-60.19
-61.763
-63.362
-64.978
-66.602
-68.222
-69.83
-71.414
-72.966
-74.476
-75.933
-77.329
-78.655
-79.902
-81.062
-82.129
-83.095
-83.956
-84.706
-85.342
-85.861
-86.262
-86.542
-86.702
-86.739
-86.653
-86.445
-86.112
-85.655
-85.075
-84.373
-83.551
-82.612
-81.56
-80.4
-79.138
-77.781
-76.336
-74.811
-73.214
-71.553
-69.838
-68.077
-66.281
-64.46
-62.624
-60.784
-58.95
-57.133
-55.344
-53.59
-51.881
-50.225
-48.629
-47.102
-45.652
-44.285
-43.013
-41.844
-40.787
-39.853
-39.049
-38.382
-37.859
-37.485
-37.264
-37.196
-37.28
-37.517
-37.905
-38.442
-39.125
-39.952
-40.918
-42.019
-43.251
-44.61
-46.091
-47.686
-49.393
-51.201
-53.101
-55.081
-57.128
-59.223
-61.356
-63.518
-65.682
-67.823
-69.917
-71.934
-73.862
-75.697
-77.393
-78.903
-80.252
-81.471
-82.593
-83.682
-84.74
-85.732
-86.735
-87.856
-88.935
-89.776
-90.499
-91.075
-91.461
-92.102
-91.798
-89.409
-86.621
-83.889
-84.226
-91.183
-100.481
-109.287
-113.349
-106.841
-94.699
-81.19
-69.488
-64.914
-64.308
-64.138
-63.554
-60.331
-55.506
-50.479
-44.326
-36.168
-25.523
-12.451
2.067
16.797
30.86
43.393
52.869
57.146
54.724
45.137
28.728
6.336
-21.32
-53.26
-87.722
-122.034
-153.37
-179.821
-200.253
-213.767
-219.714
-218.015
-209.218
-194.968
-177.727
-159.269
-140.889
-123.993
-109.526
-98.026
-89.807
-84.296
-80.246
-76.938
-73.934
-70.731
-67.23
-63.399
-59.155
-54.835
-50.978
-47.821
-45.452
-43.855
-42.808
-42.147
-41.769
-41.49
-41.137
-40.604
-39.826
-38.811
-37.606
-36.238
-34.704
-32.99
-31.108
-29.096
-26.945
-24.661
-22.27
-19.784
-17.282
-14.866
-12.515
-10.168
-7.998
-6.198
-4.626
-3.277
-2.169
-0.845
-0.503
-2.302
-4.562
-6.764
-5.818
1.966
12.542
23.217
29.971
27.274
20.037
12.425
7.29
9.341
15.216
21.507
27.461
31.003
33.343
36.035
38.783
41.785
44.935
47.916
50.927
54.125
57.447
60.872
64.411
68.046
71.757
75.524
79.305
83.053
86.769
90.452
94.083
97.646
101.127
104.505
107.767
110.904
113.895
116.723
119.374
121.832
124.085
126.12
127.926
129.493
130.812
131.875
132.676
133.21
133.476
133.47
133.195
132.651
131.841
130.77
129.444
127.869
126.052
124.003
121.73
119.243
116.555
113.676
110.62
107.402
104.036
100.537
96.922
93.208
89.412
85.551
81.643
77.705
73.755
69.809
65.883
61.992
58.151
54.373
50.671
47.055
43.536
40.122
36.823
33.643
30.591
27.671
24.888
22.245
19.745
17.392
15.187
13.13
11.223
9.465
7.853
6.388
5.065
3.881
2.831
1.911
1.115
0.436
-0.134
-0.6
-0.972
-1.257
-1.462
-1.595
-1.664
-1.674
-1.632
-1.544
-1.415
-1.25
-1.053
-0.828
-0.578
-0.308
-0.019
0.283
0.598
0.921
1.251
1.585
1.921
2.255
2.587
2.915
3.236
3.55
3.856
4.153
4.442
4.723
4.998
5.266
5.531
5.793
6.055
6.317
6.582
6.85
7.122
7.399
7.681
7.968
8.26
8.556
8.856
9.159
9.464
9.77
10.076
10.382
10.687
10.989
11.288
11.584
11.876
12.163
12.446
12.723
12.993
13.257
13.512
13.758
13.993
14.217
14.427
14.621
14.8
14.96
15.101
15.222
15.323
15.402
15.459
15.495
15.51
15.504
15.478
15.433
15.37
15.291
15.197
15.09
14.971
14.841
14.704
14.56
14.412
14.261
14.111
13.964
13.821
13.686
13.561
13.449
13.351
13.269
13.206
13.162
13.139
13.139
13.162
13.209
13.281
13.379
13.502
13.651
13.824
14.021
14.24
14.479
14.736
15.009
15.295
15.593
15.899
16.212
16.528
16.843
17.153
17.454
17.739
18.004
18.241
18.447
18.615
18.744
18.831
18.874
18.873
18.827
18.735
18.598
18.413
18.178
17.889
17.542
17.136
16.673
16.151
15.57
14.928
14.228
13.472
12.667
11.816
10.921
9.986
9.014
8.017
7.01
6.008
5.033
4.099
3.216
2.402
1.671
1.033
0.494
0.036
-0.367
-0.746
-1.128
-1.538
-1.998
-2.54
-3.186
-3.958
-4.877
-5.928
-7.094
-8.363
-9.722
-11.189
-12.761
-14.35
-15.824
-17.009
-17.721
-17.888
-17.408
-16.087
-13.885
-10.838
-7.116
-3.255
0.252
3.311
5.825
7.798
9.656
11.666
14.351
19.021
26.672
37.534
51.493
67.575
83.885
98.875
110.487
115.602
111.737
97.287
71.541
35.629
-7.846
-56.406
-106.7
-154.231
-195.181
-226.227
-245.024
-251.332
-246.367
-231.547
-209.237
-182.719
-154.732
-127.972
-104.581
-85.263
-69.932
-58.258
-49.335
-41.884
-35.099
-28.202
-20.646
-12.542
-4.193
3.949
11.204
16.935
20.858
22.865
22.998
21.517
18.66
14.736
10.179
5.352
0.507
-4.209
-8.731
-12.994
-16.863
-20.177
-22.824
-24.734
-25.895
-26.318
-26.015
-25.036
-23.478
-21.492
-19.266
-16.93
-14.558
-12.186
-9.829
-7.516
-5.292
-3.194
-1.234
0.581
2.247
3.762
5.115
6.326
7.439
8.521
9.648
10.873
12.227
13.728
15.386
17.211
19.21
21.379
23.701
26.167
28.774
31.52
34.409
37.435
40.583
43.837
47.178
50.588
54.051
57.551
61.072
64.598
68.117
71.618
75.093
78.532
81.921
85.244
88.487
91.634
94.669
97.578
100.342
102.947
105.381
107.631
109.687
111.539
113.179
114.597
115.788
116.746
117.465
117.942
118.172
118.153
117.885
117.367
116.601
115.589
114.336
112.845
111.123
109.176
107.012
104.639
102.065
99.299
96.353
93.236
89.96
86.537
82.98
79.302
75.517
71.638
67.677
63.647
59.561
55.432
51.27
47.088
42.896
38.706
34.527
30.37
26.245
22.161
18.127
14.151
10.242
6.405
2.65
-1.018
-4.593
-8.067
-11.437
-14.696
-17.839
-20.862
-23.761
-26.533
-29.175
-31.683
-34.056
-36.291
-38.388
-40.345
-42.162
-43.837
-45.372
-46.767
-48.021
-49.136
-50.113
-50.953
-51.658
-52.23
-52.671
-52.984
-53.17
-53.235
-53.18
-53.011
-52.732
-52.348
-51.864
-51.286
-50.621
-49.876
-49.056
-48.17
-47.225
-46.228
-45.189
-44.113
-43.011
-41.889
-40.755
-39.618
-38.484
-37.362
-36.257
-35.178
-34.13
-33.12
-32.153
-31.236
-30.374
-29.572
-28.834
-28.166
-27.57
-27.05
-26.608
-26.247
-25.966
-25.767
-25.648
-25.609
-25.647
-25.76
-25.944
-26.196
-26.51
-26.881
-27.304
-27.771
-28.277
-28.814
-29.376
-29.955
-30.544
-31.136
-31.724
-32.302
-32.863
-33.4
-33.907
-34.378
-34.805
-35.183
-35.505
-35.766
-35.96
-36.083
-36.13
-36.098
-35.986
-35.791
-35.513
-35.151
-34.708
-34.183
-33.58
-32.901
-32.151
-31.333
-30.454
-29.52
-28.536
-27.512
-26.454
-25.37
-24.268
-23.154
-22.036
-20.92
-19.813
-18.722
-17.655
-16.618
-15.62
-14.671
-13.777
-12.945
-12.183
-11.496
-10.888
-10.363
-9.922
-9.564
-9.291
-9.101
-8.996
-8.975
-9.038
-9.185
-9.415
-9.724
-10.109
-10.569
-11.099
-11.695
-12.348
-13.051
-13.797
-14.579
-15.389
-16.22
-17.06
-17.897
-18.717
-19.505
-20.24
-20.907
-21.488
-21.965
-22.321
-22.545
-22.638
-22.614
-22.505
-22.339
-22.146
-21.956
-21.794
-21.686
-21.656
-21.723
-21.886
-22.146
-22.499
-22.95
-23.545
-24.311
-25.211
-26.164
-27.006
-27.56
-27.75
-27.478
-26.566
-24.938
-22.595
-19.666
-16.656
-14.101
-12.117
-10.742
-9.937
-9.297
-8.547
-7.198
-3.925
2.536
12.616
26.211
42.554
60.126
77.449
92.409
101.954
102.968
94.447
78.024
54.006
22.575
-17.839
-71.613
-133.798
-192.947
-238.009
-255.563
-244.599
-216.693
-181.381
-149.806
-126.932
-107.939
-90.891
-74.869
-59.675
-48.279
-41.597
-38.29
-36.843
-35.756
-33.995
-31.306
-27.776
-23.446
-18.561
-13.69
-9.413
-5.997
-3.527
-1.891
-0.848
-0.28
-0.059
0.006
0.071
0.246
0.579
1.05
1.612
2.252
2.965
3.757
4.629
5.56
6.516
7.453
8.333
9.122
9.783
10.297
10.66
10.878
10.969
10.959
10.873
10.737
10.579
10.415
10.258
10.125
10.031
9.997
10.046
10.199
10.479
10.903
11.488
12.245
13.184
14.31
15.626
17.134
18.832
20.723
22.807
25.083
27.551
30.209
33.05
36.067
39.255
42.6
46.09
49.711
53.446
57.277
61.188
65.162
69.179
73.221
77.27
81.308
85.315
89.274
93.167
96.974
100.679
104.263
107.709
111.002
114.125
117.063
119.803
122.329
124.631
126.695
128.51
130.067
131.357
132.372
133.106
133.554
133.714
133.583
133.162
132.452
131.456
130.178
128.624
126.801
124.716
122.38
119.802
116.993
113.965
110.732
107.305
103.7
99.931
96.011
91.957
87.784
83.508
79.146
74.712
70.226
65.702
61.158
56.61
52.075
47.567
43.103
38.698
34.365
30.118
25.971
21.936
18.025
14.248
10.615
7.135
3.816
0.663
-2.318
-5.123
-7.749
-10.194
-12.457
-14.538
-16.438
-18.158
-19.701
-21.068
-22.266
-23.298
-24.171
-24.89
-25.463
-25.897
-26.201
-26.381
-26.446
-26.405
-26.266
-26.038
-25.73
-25.352
-24.913
-24.422
-23.888
-23.321
-22.729
-22.12
-21.502
-20.882
-20.266
-19.661
-19.071
-18.501
-17.956
-17.439
-16.954
-16.503
-16.09
-15.715
-15.379
-15.084
-14.83
-14.615
-14.44
-14.304
-14.206
-14.146
-14.121
-14.131
-14.175
-14.25
-14.354
-14.486
-14.642
-14.82
-15.018
-15.231
-15.458
-15.696
-15.942
-16.193
-16.448
-16.703
-16.957
-17.207
-17.452
-17.689
-17.917
-18.134
-18.339
-18.53
-18.706
-18.865
-19.006
-19.127
-19.227
-19.304
-19.356
-19.383
-19.382
-19.353
-19.295
-19.208
-19.092
-18.946
-18.771
-18.567
-18.335
-18.075
-17.789
-17.479
-17.145
-16.79
-16.417
-16.028
-15.626
-15.215
-14.796
-14.371
-13.944
-13.517
-13.093
-12.677
-12.271
-11.881
-11.514
-11.175
-10.869
-10.602
-10.377
-10.198
-10.069
-9.99
-9.961
-9.983
-10.056
-10.183
-10.367
-10.61
-10.913
-11.277
-11.704
-12.197
-12.757
-13.388
-14.089
-14.858
-15.695
-16.601
-17.573
-18.61
-19.701
-20.834
-21.997
-23.175
-24.355
-25.522
-26.649
-27.712
-28.687
-29.552
-30.287
-30.882
-31.33
-31.645
-31.854
-31.991
-32.103
-32.237
-32.423
-32.688
-33.043
-33.481
-34.014
-34.65
-35.4
-36.313
-37.434
-38.791
-40.377
-42.101
-43.803
-45.327
-46.462
-46.94
-46.584
-45.29
-43.151
-40.634
-38.271
-36.413
-35.289
-34.975
-35.286
-35.988
-36.28
-34.261
-27.965
-16.064
0.524
18.792
36.107
51.423
68.449
92.174
123.485
158.048
180.609
173.227
123.683
28.216
-96.168
-223.538
-326.877
-381.507
-386.281
-350.227
-288.268
-222.689
-159.667
-103.012
-57.69
-21.181
-0.047
2.497
-6.92
-23.947
-39.699
-48.096
-52.745
-56.212
-60.426
-65.833
-68.866
-67.817
-63.722
-58.386
-53.531
-49.701
-46.552
-43.809
-41.772
-40.77
-40.582
-40.619
-40.405
-39.736
-38.702
-37.519
-36.19
-34.627
-32.826
-30.843
-28.786
-26.763
-24.806
-22.902
-21.05
-19.256
-17.528
-15.886
-14.323
-12.82
-11.355
-9.9
-8.435
-6.953
-5.459
-3.959
-2.457
-0.944
0.585
2.134
3.707
5.306
6.939
8.618
10.351
12.141
13.987
15.884
17.83
19.825
21.871
23.969
26.121
28.327
30.588
32.904
35.275
37.699
40.171
42.684
45.23
47.802
50.39
52.989
55.589
58.182
60.762
63.32
65.85
68.346
70.799
73.203
75.549
77.83
80.036
82.159
84.19
86.121
87.942
89.645
91.222
92.663
93.961
95.107
96.094
96.914
97.56
98.026
98.307
98.398
98.297
98.001
97.51
96.824
95.944
94.872
93.609
92.159
90.525
88.71
86.717
84.551
82.216
79.717
77.061
74.253
71.3
68.21
64.992
61.653
58.204
54.653
51.012
47.29
43.5
39.653
35.759
31.833
27.884
23.926
19.969
16.026
12.107
8.221
4.379
0.589
-3.14
-6.8
-10.383
-13.882
-17.29
-20.6
-23.806
-26.901
-29.879
-32.736
-35.465
-38.064
-40.528
-42.853
-45.038
-47.079
-48.976
-50.728
-52.335
-53.797
-55.116
-56.294
-57.334
-58.24
-59.016
-59.665
-60.194
-60.606
-60.907
-61.102
-61.196
-61.194
-61.101
-60.922
-60.662
-60.327
-59.92
-59.447
-58.913
-58.323
-57.681
-56.993
-56.263
-55.496
-54.696
-53.868
-53.015
-52.142
-51.253
-50.351
-49.44
-48.522
-47.6
-46.676
-45.752
-44.829
-43.908
-42.99
-42.076
-41.165
-40.259
-39.357
-38.458
-37.564
-36.673
-35.786
-34.903
-34.025
-33.152
-32.284
-31.423
-30.569
-29.724
-28.889
-28.065
-27.254
-26.457
-25.675
-24.912
-24.167
-23.445
-22.745
-22.069
-21.42
-20.797
-20.203
-19.638
-19.102
-18.597
-18.123
-17.681
-17.273
-16.899
-16.561
-16.259
-15.996
-15.772
-15.589
-15.447
-15.345
-15.284
-15.262
-15.279
-15.335
-15.427
-15.555
-15.716
-15.908
-16.128
-16.375
-16.643
-16.929
-17.229
-17.538
-17.855
-18.177
-18.501
-18.827
-19.15
-19.471
-19.789
-20.104
-20.415
-20.72
-21.013
-21.292
-21.551
-21.787
-21.999
-22.183
-22.333
-22.449
-22.531
-22.586
-22.624
-22.652
-22.673
-22.688
-22.7
-22.712
-22.738
-22.788
-22.86
-22.956
-23.072
-23.209
-23.38
-23.59
-23.827
-24.072
-24.286
-24.428
-24.478
-24.425
-24.267
-23.993
-23.575
-22.995
-22.261
-21.43
-20.599
-19.826
-19.11
-18.442
-17.781
-17.197
-16.935
-17.029
-17.301
-17.575
-17.558
-17.232
-17.042
-17.047
-16.835
-16.49
-16.403
-17.221
-20.27
-25.951
-33.416
-42.35
-52.656
-63.379
-73.342
-80.585
-81.884
-75.642
-61.993
-40.786
-12.805
20.026
55.604
90.026
117.794
135.368
140.297
131.487
111.429
81.052
40.455
-9.82
-71.718
-140.097
-203.375
-250.347
-268.119
-255.224
-222.882
-182.057
-145.286
-118.159
-95.213
-72.254
-47.123
-20.994
-2.528
-0.113
-15.073
-41.851
-67.062
-76.223
-63.857
-34.677
-1.772
21.721
30.212
25.841
16.47
8.59
4.303
2.951
2.053
0.417
-1.542
-3.382
-4.743
-5.677
-6.516
-7.372
-8.176
-8.891
-9.453
-9.725
-9.579
-8.932
-7.773
-6.201
-4.375
-2.405
-0.358
1.705
3.748
5.746
7.684
9.581
11.464
13.34
15.191
16.973
18.644
20.193
21.632
22.991
24.318
25.649
27.014
28.45
29.983
31.627
33.389
35.26
37.222
39.267
41.395
43.61
45.922
48.333
50.841
53.444
56.135
58.909
61.757
64.665
67.621
70.614
73.632
76.67
79.722
82.78
85.835
88.879
91.902
94.893
97.841
100.733
103.554
106.292
108.932
111.462
113.87
116.144
118.272
120.242
122.046
123.672
125.109
126.35
127.383
128.201
128.795
129.158
129.284
129.169
128.808
128.201
127.348
126.249
124.906
123.324
121.506
119.458
117.188
114.702
112.011
109.122
106.049
102.802
99.396
95.844
92.159
88.356
84.45
80.455
76.387
72.261
68.091
63.893
59.682
55.475
51.285
47.13
43.022
38.976
35.006
31.124
27.342
23.671
20.12
16.698
13.414
10.274
7.284
4.448
1.77
-0.748
-3.106
-5.302
-7.34
-9.219
-10.943
-12.515
-13.938
-15.217
-16.356
-17.359
-18.234
-18.984
-19.616
-20.138
-20.555
-20.876
-21.106
-21.254
-21.327
-21.331
-21.276
-21.167
-21.011
-20.817
-20.59
-20.337
-20.063
-19.775
-19.477
-19.173
-18.867
-18.561
-18.259
-17.961
-17.668
-17.383
-17.104
-16.833
-16.57
-16.315
-16.068
-15.829
-15.597
-15.372
-15.155
-14.943
-14.739
-14.54
-14.347
-14.159
-13.976
-13.798
-13.623
-13.451
-13.281
-13.111
-12.939
-12.765
-12.586
-12.4
-12.208
-12.006
-11.795
-11.574
-11.341
-11.097
-10.842
-10.575
-10.296
-10.005
-9.704
-9.39
-9.066
-8.73
-8.384
-8.025
-7.653
-7.268
-6.867
-6.449
-6.011
-5.552
-5.069
-4.561
-4.027
-3.466
-2.877
-2.263
-1.622
-0.956
-0.268
0.442
1.17
1.914
2.672
3.44
4.213
4.989
5.762
6.53
7.287
8.031
8.757
9.462
10.143
10.796
11.419
12.007
12.555
13.057
13.507
13.899
14.227
14.485
14.668
14.773
14.799
14.745
14.611
14.398
14.107
13.74
13.297
12.782
12.194
11.536
10.812
10.025
9.181
8.282
7.332
6.336
5.301
4.231
3.134
2.019
0.893
-0.23
-1.336
-2.404
-3.416
-4.347
-5.175
-5.877
-6.427
-6.802
-6.986
-6.969
-6.753
-6.358
-5.805
-5.128
-4.365
-3.557
-2.753
-1.993
-1.302
-0.702
-0.214
0.144
0.338
0.319
0.09
-0.323
-0.859
-1.376
-1.729
-1.781
-1.314
-0.052
2.124
5.184
8.907
12.799
16.484
19.773
22.367
24.055
25.111
26.144
28.254
33.092
41.796
54.97
73.235
96.363
122.898
150.768
176.848
197.178
208.692
208.671
194.23
164.392
120.151
63.509
-1.751
-70.941
-140.199
-204.784
-258.969
-299.023
-322.968
-330.041
-321.574
-299.299
-264.362
-219.95
-171.064
-121.83
-75.803
-35.407
-1.291
25.561
43.569
53.025
55.823
54.076
50.317
46.112
41.714
37.868
35.795
35.841
37.68
40.483
42.765
43.74
43.486
41.949
38.998
34.696
29.136
22.732
16.331
10.488
5.417
1.267
-1.955
-4.243
-5.516
-5.813
-5.313
-4.166
-2.522
-0.517
1.784
4.295
6.918
9.59
12.233
14.777
17.186
19.437
21.517
23.428
25.165
26.724
28.121
29.385
30.561
31.697
32.838
34.028
35.301
36.684
38.2
39.863
41.676
43.635
45.729
47.943
50.269
52.7
55.227
57.839
60.522
63.26
66.038
68.839
71.647
74.448
77.228
79.977
82.688
85.354
87.971
90.535
93.041
95.482
97.853
100.144
102.347
104.454
106.455
108.342
110.108
111.744
113.245
114.605
115.817
116.877
117.778
118.517
119.087
119.485
119.708
119.751
119.614
119.294
118.79
118.102
117.23
116.173
114.932
113.507
111.897
110.104
108.127
105.968
103.627
101.107
98.409
95.538
92.497
89.292
85.928
82.412
78.752
74.955
71.03
66.987
62.836
58.587
54.252
49.842
45.371
40.851
36.294
31.713
27.12
22.53
17.953
13.402
8.889
4.428
0.029
-4.294
-8.529
-12.663
-16.685
-20.581
-24.341
-27.953
-31.405
-34.689
-37.794
-40.713
-43.438
-45.963
-48.283
-50.395
-52.295
-53.983
-55.459
-56.724
-57.781
-58.634
-59.287
-59.747
-60.02
-60.114
-60.035
-59.793
-59.396
-58.853
-58.173
-57.365
-56.441
-55.409
-54.282
-53.071
-51.788
-50.445
-49.054
-47.629
-46.181
-44.724
-43.269
-41.829
-40.415
-39.038
-37.709
-36.438
-35.233
-34.102
-33.054
-32.093
-31.226
-30.455
-29.784
-29.216
-28.752
-28.392
-28.136
-27.985
-27.938
-27.994
-28.152
-28.41
-28.767
-29.219
-29.764
-30.398
-31.116
-31.913
-32.784
-33.721
-34.718
-35.769
-36.865
-38
-39.164
-40.351
-41.552
-42.759
-43.963
-45.157
-46.334
-47.485
-48.604
-49.684
-50.721
-51.707
-52.64
-53.515
-54.329
-55.077
-55.756
-56.363
-56.894
-57.346
-57.714
-57.997
-58.19
-58.291
-58.301
-58.217
-58.042
-57.775
-57.418
-56.973
-56.442
-55.83
-55.137
-54.369
-53.529
-52.623
-51.655
-50.634
-49.566
-48.457
-47.315
-46.149
-44.967
-43.776
-42.582
-41.39
-40.208
-39.039
-37.89
-36.763
-35.663
-34.594
-33.563
-32.578
-31.647
-30.779
-29.982
-29.262
-28.627
-28.083
-27.633
-27.279
-27.016
-26.845
-26.769
-26.8
-26.952
-27.236
-27.653
-28.205
-28.889
-29.689
-30.58
-31.519
-32.456
-33.357
-34.2
-34.977
-35.701
-36.38
-37.018
-37.614
-38.148
-38.603
-38.971
-39.231
-39.379
-39.444
-39.498
-39.668
-40.103
-40.914
-42.18
-43.949
-46.214
-48.942
-52.082
-55.564
-59.354
-63.451
-67.831
-72.469
-77.308
-82.202
-86.943
-91.257
-94.754
-97.043
-97.92
-97.338
-95.475
-92.744
-89.464
-85.852
-82.25
-78.9
-75.618
-71.812
-66.347
-57.846
-45.545
-29.187
-8.486
16.468
44.76
74.569
102.889
126.47
143.062
150.647
146.84
129.88
99.112
56.717
7.892
-42.919
-93.343
-145.406
-203.069
-265.943
-328.748
-376.409
-391.104
-364.399
-297.186
-208.336
-125.004
-64.315
-36.023
-34.16
-43.123
-54.419
-61.391
-63.271
-65.241
-68.725
-74.571
-82.423
-88.674
-91.237
-89.783
-84.994
-79.189
-73.938
-69.482
-65.802
-62.773
-60.569
-59.455
-59.234
-59.292
-59.117
-58.508
-57.499
-56.268
-54.859
-53.209
-51.315
-49.248
-47.115
-45.013
-42.977
-40.996
-39.071
-37.221
-35.466
-33.832
-32.322
-30.92
-29.608
-28.358
-27.147
-25.969
-24.826
-23.722
-22.658
-21.627
-20.621
-19.635
-18.665
-17.702
-16.735
-15.745
-14.72
-13.653
-12.54
-11.381
-10.175
-8.917
-7.602
-6.223
-4.776
-3.253
-1.65
0.04
1.822
3.7
5.674
7.744
9.907
12.163
14.509
16.944
19.465
22.069
24.753
27.513
30.345
33.243
36.2
39.209
42.258
45.339
48.438
51.544
54.642
57.718
60.757
63.744
66.663
69.497
72.229
74.844
77.324
79.653
81.814
83.791
85.57
87.135
88.474
89.575
90.425
91.014
91.333
91.374
91.129
90.592
89.759
88.626
87.193
85.459
83.426
81.098
78.481
75.584
72.415
68.988
65.314
61.409
57.291
52.977
48.488
43.843
39.066
34.179
29.204
24.166
19.088
13.994
8.91
3.858
-1.138
-6.054
-10.867
-15.555
-20.097
-24.472
-28.659
-32.642
-36.402
-39.923
-43.191
-46.193
-48.919
-51.357
-53.503
-55.349
-56.893
-58.134
-59.074
-59.716
-60.064
-60.127
-59.913
-59.432
-58.696
-57.718
-56.511
-55.091
-53.474
-51.675
-49.711
-47.601
-45.362
-43.012
-40.569
-38.051
-35.477
-32.863
-30.228
-27.588
-24.96
-22.361
-19.805
-17.309
-14.885
-12.547
-10.307
-8.175
-6.159
-4.267
-2.505
-0.876
0.616
1.97
3.187
4.267
5.213
6.027
6.713
7.277
7.723
8.059
8.292
8.428
8.476
8.444
8.34
8.172
7.948
7.678
7.37
7.031
6.672
6.301
5.927
5.56
5.208
4.881
4.587
4.332
4.125
3.971
3.875
3.841
3.872
3.973
4.144
4.386
4.702
5.091
5.551
6.083
6.684
7.351
8.08
8.868
9.712
10.607
11.55
12.537
13.565
14.63
15.729
16.857
18.011
19.184
20.371
21.566
22.762
23.952
25.129
26.287
27.419
28.519
29.581
30.601
31.572
32.488
33.345
34.138
34.861
35.51
36.082
36.572
36.98
37.305
37.546
37.704
37.778
37.769
37.676
37.498
37.233
36.881
36.44
35.911
35.296
34.596
33.817
32.964
32.045
31.067
30.036
28.961
27.846
26.697
25.52
24.32
23.103
21.875
20.64
19.404
18.172
16.951
15.746
14.561
13.401
12.271
11.176
10.128
9.132
8.198
7.338
6.562
5.895
5.358
4.966
4.736
4.685
4.819
5.142
5.648
6.299
7.06
7.896
8.757
9.62
10.461
11.25
11.975
12.609
13.124
13.506
13.714
13.703
13.464
13.007
12.404
11.818
11.374
11.233
11.628
12.625
14.188
16.166
18.123
19.673
20.593
20.556
19.377
17.392
15.227
13.951
15.173
20.048
29.338
43.76
63.168
86.358
111.306
134.906
153.344
163.433
162.552
148.485
120.613
79.924
28.941
-28.149
-86.282
-140.592
-186.767
-221.022
-241.07
-246.286
-237.677
-217.806
-190.182
-158.594
-126.338
-96.353
-70.777
-50.611
-35.936
-25.998
-19.392
-14.503
-10.195
-5.567
-0.107
6.106
12.736
19.201
24.764
28.815
31.08
31.418
30.007
27.511
24.536
21.498
18.658
15.903
14.163
15.768
21.735
30.708
37.231
33.266
15.355
-12.371
-38.158
-48.463
-37.34
-9.584
21.483
42.964
49.387
43.535
33.858
26.95
24.925
26.781
29.618
31.978
33.995
35.895
37.945
40.02
41.762
43.107
44.153
44.961
45.58
46.068
46.495
46.952
47.504
48.16
48.89
49.674
50.515
51.416
52.384
53.424
54.532
55.707
56.95
58.254
59.612
61.017
62.463
63.943
65.453
66.991
68.555
70.147
71.767
73.41
75.073
76.746
78.424
80.099
81.761
83.399
85.004
86.566
88.074
89.521
90.897
92.192
93.396
94.5
95.496
96.373
97.122
97.734
98.199
98.509
98.656
98.633
98.433
98.052
97.484
96.728
95.78
94.641
93.31
91.787
90.074
88.175
86.093
83.834
81.403
78.808
76.057
73.16
70.127
66.969
63.697
60.322
56.857
53.315
49.708
46.049
42.352
38.631
34.899
31.17
27.459
23.779
20.144
16.567
13.061
9.639
6.311
3.09
-0.016
-2.996
-5.843
-8.549
-11.108
-13.514
-15.763
-17.851
-19.775
-21.533
-23.126
-24.553
-25.815
-26.915
-27.856
-28.64
-29.272
-29.756
-30.098
-30.303
-30.377
-30.325
-30.156
-29.875
-29.49
-29.009
-28.44
-27.791
-27.069
-26.284
-25.444
-24.555
-23.627
-22.667
-21.682
-20.679
-19.666
-18.649
-17.635
-16.628
-15.635
-14.66
-13.708
-12.783
-11.887
-11.023
-10.194
-9.401
-8.647
-7.933
-7.261
-6.632
-6.047
-5.507
-5.014
-4.568
-4.17
-3.82
-3.519
-3.266
-3.061
-2.904
-2.794
-2.73
-2.711
-2.733
-2.796
-2.896
-3.03
-3.195
-3.388
-3.604
-3.84
-4.092
-4.358
-4.633
-4.915
-5.2
-5.486
-5.768
-6.043
-6.309
-6.562
-6.797
-7.013
-7.203
-7.365
-7.493
-7.583
-7.629
-7.627
-7.572
-7.458
-7.281
-7.036
-6.72
-6.33
-5.865
-5.325
-4.709
-4.018
-3.254
-2.418
-1.514
-0.544
0.488
1.578
2.723
3.917
5.156
6.433
7.744
9.082
10.443
11.819
13.205
14.596
15.984
17.361
18.72
20.052
21.347
22.593
23.78
24.898
25.936
26.885
27.738
28.49
29.136
29.674
30.102
30.418
30.623
30.714
30.691
30.552
30.295
29.921
29.435
28.837
28.131
27.32
26.404
25.393
24.292
23.106
21.842
20.505
19.101
17.647
16.159
14.66
13.176
11.728
10.33
9.006
7.776
6.654
5.651
4.754
3.933
3.162
2.414
1.668
0.905
0.088
-0.813
-1.823
-2.961
-4.218
-5.583
-7.055
-8.635
-10.335
-12.146
-13.972
-15.667
-17.063
-17.971
-18.312
-17.982
-16.774
-14.639
-11.617
-7.885
-3.983
-0.396
2.784
5.477
7.674
9.754
11.936
14.713
19.385
27.007
37.909
51.967
68.199
84.861
100.521
113.289
120.18
118.389
105.906
81.912
47.405
4.637
-44.09
-95.857
-146.531
-191.608
-227.035
-250.163
-260.307
-258.222
-245.173
-222.991
-194.554
-163.5
-133.351
-106.685
-84.836
-68.084
-56.204
-48.689
-44.499
-42.103
-40.132
-37.736
-34.553
-30.698
-26.506
-22.304
-18.509
-15.637
-13.942
-13.379
-13.784
-14.861
-16.306
-17.944
-19.585
-21.018
-22.148
-22.949
-23.412
-23.574
-23.417
-22.85
-21.843
-20.418
-18.642
-16.655
-14.57
-12.462
-10.418
-8.51
-6.796
-5.305
-4.01
-2.851
-1.787
-0.803
0.063
0.776
1.359
1.797
2.026
2.03
1.779
1.297
0.728
0.141
-0.551
-1.203
-1.402
-1.084
-0.367
0.806
1.988
4.055
9.54
17.809
26.59
31.985
26.79
11.699
-6.13
-19.479
-18.108
-1.719
20.058
39.807
49.406
47.704
41.903
36.333
34.046
35.837
38.739
41.463
44.077
46.473
49.087
51.999
54.801
57.365
59.745
61.918
63.852
65.552
67.023
68.289
69.41
70.393
71.198
71.807
72.216
72.418
72.412
72.191
71.746
71.075
70.183
69.075
67.757
66.234
64.512
62.599
60.503
58.234
55.803
53.219
50.495
47.642
44.671
41.593
38.421
35.165
31.839
28.452
25.017
21.546
18.05
14.541
11.03
7.531
4.053
0.609
-2.79
-6.135
-9.416
-12.624
-15.751
-18.79
-21.735
-24.582
-27.325
-29.963
-32.492
-34.911
-37.22
-39.417
-41.504
-43.48
-45.346
-47.103
-48.752
-50.295
-51.732
-53.065
-54.294
-55.422
-56.45
-57.379
-58.212
-58.95
-59.597
-60.155
-60.627
-61.017
-61.326
-61.56
-61.722
-61.813
-61.838
-61.8
-61.7
-61.542
-61.326
-61.055
-60.731
-60.353
-59.924
-59.444
-58.913
-58.334
-57.707
-57.034
-56.317
-55.558
-54.759
-53.924
-53.056
-52.158
-51.236
-50.293
-49.333
-48.361
-47.381
-46.397
-45.415
-44.438
-43.472
-42.519
-41.586
-40.675
-39.792
-38.94
-38.124
-37.348
-36.616
-35.932
-35.3
-34.724
-34.208
-33.755
-33.37
-33.056
-32.814
-32.647
-32.556
-32.541
-32.601
-32.737
-32.945
-33.222
-33.566
-33.971
-34.433
-34.946
-35.505
-36.103
-36.733
-37.387
-38.057
-38.735
-39.412
-40.08
-40.728
-41.35
-41.935
-42.476
-42.964
-43.393
-43.754
-44.039
-44.242
-44.356
-44.373
-44.287
-44.094
-43.788
-43.365
-42.823
-42.161
-41.379
-40.479
-39.461
-38.33
-37.091
-35.747
-34.305
-32.772
-31.155
-29.463
-27.707
-25.898
-24.049
-22.172
-20.281
-18.388
-16.507
-14.648
-12.823
-11.039
-9.307
-7.635
-6.032
-4.509
-3.074
-1.736
-0.508
0.6
1.58
2.425
3.132
3.695
4.11
4.374
4.489
4.457
4.286
3.981
3.547
2.989
2.321
1.56
0.726
-0.152
-1.06
-1.988
-2.916
-3.826
-4.701
-5.523
-6.302
-7.062
-7.821
-8.601
-9.417
-10.271
-11.189
-12.191
-13.289
-14.493
-15.771
-17.076
-18.386
-19.69
-20.984
-22.261
-23.432
-24.351
-24.87
-24.825
-24.126
-22.697
-20.365
-17.087
-12.955
-8.139
-3.128
1.574
5.867
9.668
12.915
16.022
19.383
23.419
29.177
37.433
48.146
61.2
75.908
90.519
103.374
112.685
116.178
112.312
100.441
80.057
51.707
17.491
-20.157
-58.323
-94.03
-125.216
-150.327
-167.787
-176.737
-177.702
-172.024
-161.739
-148.671
-133.873
-118.227
-102.827
-88.808
-76.641
-66.047
-56.194
-46.447
-36.753
-27.274
-18.07
-8.947
0.165
8.972
16.842
23.183
27.768
30.628
31.909
31.734
30.187
27.453
23.886
19.871
15.693
11.548
7.516
3.63
-0.015
-3.306
-6.138
-8.386
-9.984
-10.914
-11.157
-10.72
-9.653
-8.03
-5.984
-3.684
-1.246
1.253
3.767
6.289
8.796
11.256
13.65
15.95
18.136
20.199
22.124
23.895
25.523
27.03
28.464
29.89
31.357
32.887
34.5
36.197
37.982
39.856
41.811
43.834
45.919
48.06
50.261
52.525
54.852
57.235
59.664
62.123
64.601
67.088
69.571
72.044
74.497
76.927
79.329
81.704
84.05
86.361
88.631
90.853
93.017
95.115
97.138
99.078
100.924
102.669
104.307
105.832
107.237
108.516
109.662
110.671
111.534
112.246
112.8
113.189
113.409
113.452
113.315
112.994
112.484
111.784
110.89
109.802
108.517
107.034
105.355
103.479
101.407
99.144
96.693
94.059
91.249
88.27
85.13
81.839
78.404
74.837
71.148
67.346
63.444
59.453
55.385
51.255
47.074
42.857
38.617
34.37
30.128
25.906
21.717
17.576
13.497
9.492
5.575
1.76
-1.942
-5.517
-8.956
-12.247
-15.382
-18.352
-21.151
-23.773
-26.213
-28.466
-30.531
-32.405
-34.088
-35.579
-36.882
-37.996
-38.927
-39.679
-40.257
-40.667
-40.916
-41.012
-40.963
-40.777
-40.464
-40.032
-39.492
-38.854
-38.129
-37.327
-36.46
-35.539
-34.576
-33.582
-32.567
-31.542
-30.517
-29.501
-28.503
-27.532
-26.595
-25.7
-24.853
-24.059
-23.324
-22.651
-22.045
-21.506
-21.036
-20.635
-20.304
-20.042
-19.847
-19.717
-19.65
-19.644
-19.695
-19.8
-19.956
-20.157
-20.399
-20.676
-20.984
-21.315
-21.666
-22.029
-22.4
-22.772
-23.141
-23.5
-23.844
-24.169
-24.469
-24.739
-24.976
-25.174
-25.331
-25.444
-25.511
-25.53
-25.5
-25.422
-25.295
-25.121
-24.899
-24.632
-24.32
-23.965
-23.568
-23.133
-22.662
-22.158
-21.624
-21.064
-20.482
-19.882
-19.267
-18.641
-18.007
-17.369
-16.729
-16.09
-15.456
-14.83
-14.216
-13.617
-13.037
-12.479
-11.946
-11.441
-10.967
-10.523
-10.112
-9.733
-9.388
-9.076
-8.797
-8.552
-8.341
-8.164
-8.02
-7.909
-7.828
-7.776
-7.749
-7.744
-7.758
-7.79
-7.837
-7.897
-7.97
-8.055
-8.152
-8.262
-8.38
-8.502
-8.626
-8.748
-8.865
-8.977
-9.076
-9.153
-9.218
-9.278
-9.34
-9.414
-9.49
-9.55
-9.616
-9.711
-9.797
-9.842
-9.823
-9.7
-9.508
-9.313
-9.075
-8.724
-8.432
-8.407
-8.533
-8.823
-9.309
-9.527
-10.651
-13.828
-17.361
-20.73
-20.854
-14.059
-4.439
5.249
10.905
6.924
-1.825
-11.195
-18.312
-18.455
-14.999
-11.399
-8.51
-8.489
-10.156
-11.964
-14.174
-16.501
-18.995
-21.833
-24.542
-26.839
-28.772
-30.488
-32.386
-34.839
-38.012
-41.986
-46.761
-51.851
-56.45
-59.595
-59.838
-55.97
-47.316
-33.592
-15.167
6.429
28.92
49.959
66.535
75.844
75.882
65.032
42.766
10.479
-29.053
-72.976
-117.558
-158.613
-192.908
-217.403
-229.637
-230.804
-223.462
-207.831
-186.399
-159.307
-125.376
-91.527
-62.513
-43.191
-39.248
-44.844
-54.193
-62.627
-64.022
-60.898
-56.229
-50.764
-46.768
-43.242
-39.072
-35.159
-31.627
-28.71
-26.703
-25.177
-23.794
-22.505
-21.202
-19.751
-18.105
-16.272
-14.266
-12.173
-10.068
-7.933
-5.751
-3.522
-1.243
1.051
3.307
5.481
7.529
9.418
11.138
12.686
14.065
15.295
16.391
17.375
18.273
19.097
19.853
20.543
21.168
21.74
22.278
22.801
23.328
23.877
24.462
25.099
25.8
26.575
27.431
28.37
29.396
30.512
31.724
33.04
34.464
35.999
37.65
39.418
41.305
43.311
45.433
47.669
50.012
52.456
54.995
57.62
60.323
63.093
65.92
68.793
71.701
74.632
77.571
80.507
83.424
86.306
89.139
91.905
94.588
97.173
99.642
101.98
104.172
106.203
108.058
109.723
111.187
112.437
113.461
114.248
114.791
115.08
115.109
114.873
114.367
113.589
112.539
111.217
109.624
107.763
105.64
103.259
100.628
97.754
94.645
91.314
87.77
84.027
80.099
76.001
71.749
67.359
62.85
58.238
53.542
48.781
43.973
39.136
34.289
29.449
24.633
19.86
15.146
10.508
5.959
1.516
-2.809
-7.001
-11.051
-14.948
-18.681
-22.243
-25.626
-28.823
-31.83
-34.642
-37.255
-39.667
-41.876
-43.884
-45.691
-47.3
-48.714
-49.938
-50.978
-51.84
-52.531
-53.059
-53.432
-53.657
-53.744
-53.702
-53.539
-53.265
-52.888
-52.419
-51.866
-51.239
-50.545
-49.794
-48.992
-48.147
-47.266
-46.356
-45.421
-44.469
-43.504
-42.531
-41.556
-40.582
-39.613
-38.652
-37.701
-36.763
-35.837
-34.925
-34.027
-33.143
-32.272
-31.414
-30.569
-29.735
-28.913
-28.101
-27.299
-26.506
-25.722
-24.947
-24.179
-23.419
-22.668
-21.926
-21.194
-20.474
-19.767
-19.074
-18.4
-17.744
-17.111
-16.502
-15.92
-15.368
-14.847
-14.362
-13.915
-13.509
-13.148
-12.833
-12.568
-12.356
-12.199
-12.099
-12.057
-12.074
-12.151
-12.288
-12.484
-12.738
-13.049
-13.415
-13.832
-14.299
-14.811
-15.364
-15.954
-16.574
-17.22
-17.885
-18.561
-19.243
-19.921
-20.588
-21.238
-21.862
-22.452
-23.002
-23.504
-23.953
-24.342
-24.665
-24.917
-25.094
-25.191
-25.204
-25.133
-24.974
-24.727
-24.393
-23.973
-23.469
-22.885
-22.223
-21.489
-20.686
-19.821
-18.897
-17.922
-16.903
-15.846
-14.762
-13.658
-12.546
-11.435
-10.336
-9.257
-8.208
-7.197
-6.231
-5.316
-4.457
-3.659
-2.927
-2.266
-1.682
-1.178
-0.757
-0.421
-0.174
-0.016
0.049
0.023
-0.092
-0.292
-0.573
-0.928
-1.354
-1.838
-2.366
-2.929
-3.51
-4.096
-4.676
-5.23
-5.735
-6.174
-6.525
-6.768
-6.895
-6.899
-6.783
-6.568
-6.276
-5.935
-5.597
-5.287
-5.034
-4.861
-4.762
-4.744
-4.821
-4.992
-5.281
-5.73
-6.348
-7.113
-7.97
-8.774
-9.409
-9.759
-9.628
-8.865
-7.359
-5.16
-2.607
-0.138
1.902
3.369
4.328
4.948
5.295
6.081
8.726
14.383
24.339
37.822
51.601
65.085
78.436
92.709
112.377
133.735
148.015
149.423
127.498
81.421
20.268
-52.084
-122.869
-179.449
-217.739
-228.54
-213.943
-186.442
-153.985
-127.763
-111.923
-100.526
-91.466
-82.979
-74.384
-68.822
-66.403
-65.094
-63.948
-61.808
-58.006
-52.979
-46.876
-39.668
-32.21
-25.553
-19.926
-15.549
-12.526
-9.962
-8.75
-10.212
-12.474
-14.753
-14.201
-5.693
7.858
21.914
31.839
28.841
14.172
-3.673
-18.976
-22.772
-12.777
2.428
17.747
28.08
29.756
27.804
25.411
23.541
24.235
25.924
27.215
28.585
29.772
30.875
32.256
33.711
35.069
36.393
37.672
38.863
40.001
41.132
42.272
43.467
44.762
46.147
47.617
49.185
50.849
52.609
54.464
56.407
58.432
60.542
62.736
65.013
67.37
69.803
72.307
74.876
77.505
80.183
82.903
85.655
88.43
91.218
94.01
96.795
99.564
102.305
105.008
107.661
110.252
112.767
115.194
117.522
119.737
121.828
123.784
125.596
127.253
128.748
130.071
131.215
132.174
132.94
133.508
133.873
134.031
133.98
133.716
133.239
132.549
131.646
130.533
129.211
127.684
125.957
124.033
121.918
119.62
117.146
114.505
111.706
108.76
105.678
102.471
99.153
95.735
92.23
88.652
85.013
81.326
77.604
73.86
70.106
66.354
62.616
58.903
55.225
51.593
48.016
44.502
41.06
37.698
34.422
31.239
28.155
25.175
22.304
19.546
16.903
14.377
11.97
9.682
7.513
5.462
3.527
1.706
-0.004
-1.607
-3.106
-4.505
-5.809
-7.023
-8.15
-9.196
-10.166
-11.063
-11.893
-12.657
-13.361
-14.006
-14.597
-15.135
-15.624
-16.065
-16.461
-16.814
-17.126
-17.398
-17.631
-17.827
-17.987
-18.111
-18.199
-18.252
-18.27
-18.253
-18.201
-18.113
-17.99
-17.831
-17.637
-17.407
-17.141
-16.839
-16.502
-16.132
-15.728
-15.294
-14.831
-14.344
-13.836
-13.31
-12.771
-12.225
-11.675
-11.127
-10.587
-10.06
-9.552
-9.069
-8.617
-8.201
-7.829
-7.505
-7.237
-7.029
-6.887
-6.815
-6.817
-6.899
-7.063
-7.312
-7.65
-8.079
-8.6
-9.215
-9.923
-10.726
-11.62
-12.604
-13.674
-14.826
-16.055
-17.354
-18.717
-20.137
-21.605
-23.113
-24.652
-26.212
-27.784
-29.356
-30.919
-32.459
-33.966
-35.428
-36.833
-38.171
-39.432
-40.604
-41.68
-42.65
-43.507
-44.244
-44.853
-45.33
-45.667
-45.861
-45.909
-45.808
-45.558
-45.159
-44.612
-43.921
-43.092
-42.128
-41.038
-39.827
-38.504
-37.077
-35.556
-33.952
-32.276
-30.541
-28.762
-26.953
-25.131
-23.309
-21.503
-19.728
-17.996
-16.321
-14.714
-13.184
-11.742
-10.397
-9.159
-8.039
-7.046
-6.187
-5.469
-4.902
-4.494
-4.252
-4.184
-4.294
-4.584
-5.058
-5.713
-6.548
-7.557
-8.727
-10.042
-11.492
-13.061
-14.737
-16.502
-18.321
-20.162
-21.993
-23.783
-25.504
-27.133
-28.649
-30.048
-31.353
-32.595
-33.817
-35.059
-36.339
-37.67
-39.053
-40.501
-42.038
-43.686
-45.489
-47.5
-49.771
-52.334
-55.156
-58.11
-61.05
-63.813
-66.115
-67.718
-68.464
-68.352
-67.762
-67.17
-66.896
-67.177
-68.233
-70.158
-72.682
-74.82
-74.775
-70.627
-62.129
-50.671
-37.104
-21.128
1.165
34.81
78.665
124.832
158.983
166.567
142.389
91.003
22.296
-54.644
-133.643
-209.641
-274.386
-316.314
-328.919
-314.455
-283.508
-249.401
-219.476
-193.622
-167.752
-139.595
-110.345
-82.994
-61.009
-45.464
-36.238
-33.265
-35.178
-40.14
-46.313
-52.196
-57.164
-61.108
-63.58
-63.827
-61.659
-57.598
-52.741
-47.97
-43.577
-39.585
-36.028
-33.22
-31.417
-30.489
-29.974
-29.456
-28.761
-27.893
-26.967
-25.98
-24.856
-23.611
-22.331
-21.127
-20.078
-19.197
-18.444
-17.785
-17.2
-16.68
-16.224
-15.818
-15.442
-15.072
-14.683
-14.259
-13.794
-13.279
-12.704
-12.055
-11.314
-10.467
-9.506
-8.424
-7.215
-5.87
-4.378
-2.73
-0.925
1.036
3.148
5.41
7.818
10.371
13.064
15.891
18.843
21.912
25.091
28.37
31.736
35.176
38.676
42.221
45.798
49.394
52.995
56.589
60.163
63.704
67.198
70.635
73.999
77.277
80.456
83.52
86.458
89.254
91.898
94.376
96.677
98.792
100.709
102.422
103.921
105.202
106.257
107.084
107.679
108.039
108.165
108.056
107.714
107.141
106.339
105.311
104.061
102.593
100.911
99.021
96.927
94.637
92.156
89.493
86.657
83.656
80.502
77.205
73.778
70.232
66.58
62.835
59.01
55.12
51.177
47.195
43.186
39.164
35.14
31.127
27.136
23.178
19.263
15.402
11.604
7.879
4.236
0.684
-2.769
-6.114
-9.343
-12.448
-15.422
-18.259
-20.952
-23.498
-25.892
-28.131
-30.212
-32.136
-33.9
-35.506
-36.955
-38.249
-39.391
-40.383
-41.23
-41.935
-42.503
-42.938
-43.245
-43.43
-43.497
-43.452
-43.299
-43.046
-42.697
-42.258
-41.737
-41.139
-40.471
-39.74
-38.954
-38.121
-37.246
-36.338
-35.404
-34.45
-33.481
-32.505
-31.526
-30.55
-29.58
-28.621
-27.678
-26.752
-25.848
-24.968
-24.116
-23.293
-22.502
-21.746
-21.026
-20.345
-19.704
-19.106
-18.552
-18.044
-17.584
-17.173
-16.811
-16.498
-16.235
-16.021
-15.855
-15.734
-15.658
-15.625
-15.632
-15.677
-15.76
-15.877
-16.027
-16.208
-16.419
-16.656
-16.918
-17.203
-17.509
-17.832
-18.17
-18.521
-18.882
-19.25
-19.62
-19.99
-20.355
-20.711
-21.053
-21.374
-21.671
-21.939
-22.173
-22.369
-22.523
-22.633
-22.697
-22.714
-22.682
-22.601
-22.47
-22.288
-22.055
-21.772
-21.437
-21.052
-20.617
-20.134
-19.605
-19.032
-18.418
-17.764
-17.074
-16.351
-15.596
-14.814
-14.009
-13.185
-12.348
-11.505
-10.665
-9.836
-9.026
-8.244
-7.496
-6.789
-6.129
-5.52
-4.964
-4.462
-4.015
-3.625
-3.295
-3.027
-2.824
-2.688
-2.621
-2.624
-2.699
-2.85
-3.076
-3.374
-3.741
-4.172
-4.662
-5.21
-5.81
-6.457
-7.139
-7.846
-8.567
-9.286
-9.989
-10.656
-11.263
-11.792
-12.221
-12.545
-12.772
-12.919
-13.017
-13.1
-13.192
-13.329
-13.542
-13.849
-14.267
-14.802
-15.435
-16.159
-16.969
-17.872
-18.91
-20.067
-21.277
-22.429
-23.336
-23.851
-23.914
-23.393
-22.116
-20.019
-17.053
-13.434
-9.744
-6.294
-3.127
-0.255
2.58
5.561
8.575
12.202
17.658
25.558
36.184
49.17
62.864
76.048
88.268
97.564
101.207
97.505
84.415
62.577
36.816
8.668
-22.503
-57.871
-102.153
-153.281
-200.868
-233.273
-238.897
-214.911
-170.552
-121.589
-82.327
-60.444
-55.799
-59.578
-64.073
-65.228
-60.626
-53.707
-47.169
-41.375
-37.205
-33.125
-28.047
-22.466
-16.699
-11.624
-7.88
-5.412
-4.047
-3.507
-3.559
-4.028
-4.695
-5.383
-5.962
-6.342
-6.531
-6.544
-6.369
-6.013
-5.445
-4.602
-3.454
-1.972
-0.18
1.821
3.953
6.149
8.338
10.492
12.579
14.56
16.43
18.21
19.912
21.561
23.164
24.697
26.142
27.486
28.731
29.912
31.057
32.185
33.321
34.482
35.689
36.968
38.329
39.766
41.276
42.852
44.493
46.21
48.009
49.895
51.871
53.935
56.087
58.328
60.656
63.065
65.549
68.096
70.7
73.355
76.058
78.802
81.579
84.381
87.2
90.027
92.854
95.669
98.459
101.212
103.913
106.55
109.109
111.576
113.937
116.179
118.289
120.255
122.063
123.702
125.16
126.426
127.49
128.343
128.976
129.382
129.556
129.492
129.189
128.646
127.86
126.834
125.569
124.068
122.333
120.368
118.179
115.771
113.152
110.329
107.314
104.116
100.748
97.222
93.553
89.754
85.841
81.829
77.732
73.566
69.349
65.094
60.819
56.54
52.273
48.032
43.833
39.69
35.616
31.623
27.721
23.923
20.236
16.67
13.234
9.935
6.78
3.776
0.929
-1.757
-4.278
-6.632
-8.815
-10.83
-12.674
-14.351
-15.862
-17.211
-18.4
-19.434
-20.319
-21.059
-21.662
-22.135
-22.485
-22.721
-22.852
-22.887
-22.835
-22.705
-22.505
-22.246
-21.934
-21.579
-21.187
-20.769
-20.332
-19.884
-19.434
-18.989
-18.557
-18.146
-17.763
-17.414
-17.103
-16.838
-16.621
-16.458
-16.351
-16.306
-16.323
-16.406
-16.557
-16.776
-17.063
-17.419
-17.84
-18.326
-18.872
-19.476
-20.133
-20.84
-21.592
-22.384
-23.211
-24.067
-24.947
-25.845
-26.752
-27.664
-28.571
-29.467
-30.344
-31.196
-32.015
-32.795
-33.529
-34.211
-34.835
-35.395
-35.885
-36.298
-36.63
-36.875
-37.03
-37.089
-37.051
-36.914
-36.677
-36.34
-35.906
-35.374
-34.749
-34.032
-33.228
-32.341
-31.376
-30.34
-29.239
-28.081
-26.874
-25.628
-24.352
-23.056
-21.75
-20.445
-19.15
-17.874
-16.626
-15.416
-14.254
-13.151
-12.117
-11.161
-10.292
-9.521
-8.858
-8.311
-7.887
-7.586
-7.407
-7.35
-7.416
-7.606
-7.916
-8.345
-8.889
-9.549
-10.326
-11.224
-12.239
-13.364
-14.591
-15.909
-17.311
-18.797
-20.363
-22
-23.698
-25.444
-27.229
-29.044
-30.875
-32.698
-34.478
-36.173
-37.756
-39.203
-40.497
-41.641
-42.621
-43.413
-44.014
-44.405
-44.61
-44.707
-44.735
-44.723
-44.685
-44.567
-44.422
-44.428
-44.563
-44.66
-44.553
-43.943
-42.8
-41.49
-40.043
-38.209
-36.107
-33.977
-32.293
-31.994
-33.297
-35.599
-38.711
-42.663
-47.056
-51.445
-54.662
-54.667
-50.472
-41.988
-28.919
-11.197
10.818
36.489
63.709
89.044
109.934
124.154
129.452
124.327
107.593
78.807
39.661
-6.467
-56.321
-106.094
-151.794
-190.327
-218.667
-234.669
-238.233
-230.757
-214.193
-191.524
-166.119
-140.617
-117.65
-99.21
-86.03
-78.094
-74.827
-74.881
-76.588
-78.786
-80.5
-81.134
-80.633
-79.069
-76.659
-73.886
-71.344
-69.369
-68.09
-67.46
-67.22
-67.16
-67.152
-67.056
-66.74
-66.14
-65.226
-63.992
-62.502
-60.804
-58.907
-56.823
-54.55
-52.092
-49.491
-46.807
-44.1
-41.433
-38.848
-36.355
-33.961
-31.666
-29.466
-27.364
-25.353
-23.415
-21.53
-19.683
-17.868
-16.083
-14.313
-12.53
-10.696
-8.788
-6.799
-4.747
-2.653
-0.521
1.654
3.894
6.216
8.614
11.065
13.543
16.038
18.536
21.017
23.432
25.72
27.855
29.859
31.799
33.74
35.715
37.729
39.772
41.84
43.952
46.138
48.421
50.804
53.298
55.935
58.785
61.927
65.392
69.135
73.057
77.063
81.094
85.114
89.096
92.997
96.762
100.347
103.727
106.895
109.823
112.463
114.73
116.535
117.837
118.647
119.023
119.011
118.636
117.913
116.859
115.505
113.884
112.008
109.871
107.459
104.778
101.854
98.731
95.453
92.046
88.511
84.838
81.024
77.073
72.996
68.797
64.477
60.041
55.508
50.911
46.283
41.647
37.02
32.413
27.838
23.315
18.861
14.496
10.236
6.096
2.092
-1.761
-5.445
-8.948
-12.262
-15.383
-18.306
-21.027
-23.542
-25.846
-27.938
-29.817
-31.482
-32.931
-34.166
-35.188
-36.002
-36.613
-37.027
-37.252
-37.296
-37.168
-36.879
-36.439
-35.86
-35.152
-34.329
-33.401
-32.383
-31.285
-30.12
-28.899
-27.634
-26.337
-25.018
-23.688
-22.356
-21.034
-19.73
-18.454
-17.215
-16.023
-14.884
-13.808
-12.802
-11.874
-11.03
-10.277
-9.62
-9.063
-8.611
-8.267
-8.031
-7.905
-7.889
-7.98
-8.176
-8.473
-8.868
-9.355
-9.928
-10.58
-11.304
-12.094
-12.941
-13.836
-14.772
-15.738
-16.727
-17.727
-18.73
-19.725
-20.702
-21.649
-22.557
-23.413
-24.208
-24.929
-25.565
-26.104
-26.536
-26.849
-27.034
-27.081
-26.981
-26.728
-26.315
-25.739
-24.998
-24.089
-23.013
-21.771
-20.367
-18.804
-17.086
-15.222
-13.217
-11.08
-8.82
-6.449
-3.977
-1.416
1.22
3.919
6.667
9.449
12.25
15.056
17.851
20.617
23.339
25.998
28.575
31.052
33.412
35.638
37.714
39.626
41.362
42.912
44.271
45.431
46.388
47.141
47.686
48.023
48.152
48.075
47.794
47.315
46.641
45.779
44.738
43.524
42.149
40.627
38.972
37.2
35.328
33.371
31.349
29.285
27.204
25.134
23.106
21.145
19.281
17.545
15.969
14.579
13.384
12.376
11.534
10.838
10.264
9.797
9.416
9.09
8.802
8.544
8.314
8.123
7.976
7.853
7.714
7.542
7.371
7.291
7.449
7.999
9.015
10.582
12.87
15.945
19.777
24.243
28.899
33.264
37.243
40.799
43.884
46.893
50.09
53.752
58.999
66.813
77.366
90.727
106.409
122.921
139.094
153.45
163.078
165.492
160.36
148.631
131.469
109.711
79.479
34.728
-23.982
-89.303
-146.364
-177.611
-175.763
-146.869
-105.858
-68.461
-43.586
-30.196
-21.305
-12.528
-2.921
6.234
11.945
13.907
14.099
13.65
13.52
14.434
16.235
18.886
22.452
26.334
29.777
32.505
34.47
35.793
36.766
37.562
38.303
39.2
40.452
42.226
44.546
47.216
50.175
53.137
55.469
57.264
58.937
60.321
61.783
62.709
60.41
55.775
51.847
52.269
64.353
87.736
114.298
135.783
140.854
128.008
107.165
87.206
77.635
80.259
87.479
94.585
98.28
98.096
97.902
98.745
100.086
101.901
103.377
104.396
105.513
106.568
107.224
107.693
108.152
108.695
109.494
110.447
111.396
112.392
113.509
114.741
116.081
117.501
118.955
120.474
122.094
123.82
125.66
127.598
129.615
131.705
133.859
136.066
138.318
140.6
142.895
145.189
147.462
149.699
151.884
153.997
156.02
157.933
159.717
161.358
162.843
164.158
165.291
166.227
166.952
167.454
167.723
167.749
167.525
167.042
166.297
165.285
164.005
162.458
160.646
158.571
156.237
153.652
150.822
147.757
144.469
140.968
137.268
133.384
129.332
125.125
120.783
116.321
111.756
107.106
102.389
97.622
92.823
88.01
83.2
78.41
73.657
68.958
64.328
59.782
55.336
51.001
46.791
42.717
38.79
35.018
31.409
27.969
24.705
21.62
18.716
15.995
13.457
11.103
8.929
6.934
5.114
3.465
1.982
0.66
-0.506
-1.525
-2.402
-3.146
-3.763
-4.264
-4.656
-4.948
-5.15
-5.272
-5.322
-5.309
-5.245
-5.137
-4.996
-4.83
-4.647
-4.457
-4.267
-4.085
-3.916
-3.768
-3.647
-3.557
-3.503
-3.49
-3.522
-3.602
-3.735
-3.923
-4.17
-4.477
-4.846
-5.279
-5.777
-6.339
-6.966
-7.656
-8.407
-9.218
-10.086
-11.009
-11.981
-13
-14.06
-15.157
-16.285
-17.439
-18.613
-19.8
-20.994
-22.19
-23.381
-24.561
-25.725
-26.867
-27.98
-29.059
-30.098
-31.091
-32.031
-32.912
-33.729
-34.476
-35.148
-35.74
-36.248
-36.671
-37.006
-37.253
-37.411
-37.482
-37.466
-37.367
-37.188
-36.933
-36.607
-36.217
-35.768
-35.27
-34.731
-34.159
-33.566
-32.96
-32.352
-31.751
-31.167
-30.61
-30.088
-29.614
-29.197
-28.848
-28.581
-28.405
-28.333
-28.375
-28.542
-28.84
-29.277
-29.855
-30.578
-31.446
-32.461
-33.621
-34.927
-36.376
-37.969
-39.703
-41.577
-43.585
-45.721
-47.978
-50.348
-52.824
-55.398
-58.06
-60.801
-63.608
-66.47
-69.376
-72.312
-75.257
-78.188
-81.078
-83.898
-86.622
-89.226
-91.688
-93.983
-96.095
-98.012
-99.741
-101.301
-102.716
-104.013
-105.216
-106.351
-107.452
-108.554
-109.683
-110.859
-112.1
-113.402
-114.778
-116.283
-117.937
-119.733
-121.621
-123.438
-125.005
-126.225
-126.953
-126.912
-125.952
-124.024
-121.261
-118.203
-115.366
-112.978
-111.314
-110.78
-111.397
-112.587
-113.387
-112.181
-107.216
-98.941
-87.778
-71.943
-52.038
-26.867
4.151
32.288
52.101
59.065
46.355
18.605
-23.417
-84.299
-160.343
-249.47
-340.524
-410.636
-446.974
-445.235
-413.088
-371.669
-334.879
-307.809
-289.235
-270.806
-249.068
-225.622
-202.716
-183.527
